
Current theta : [ -4.68963 , 3.18589 ] 


t	x[0]	x[1]	P	theta[0]	theta[1]	theta[2]
0	0.999	0.15371	1.01076	1.01076	-4.68963	3.18589	0
1	0.997463	0.20565	1.01844	2.0292	-4.68963	3.18589	0
2	0.995406	0.255839	1.02776	3.05696	-4.68963	3.18589	0
3	0.992848	0.3043	1.03843	4.09539	-4.68963	3.18589	0
4	0.989805	0.351051	1.05021	5.14561	-4.68963	3.18589	0
5	0.986294	0.396112	1.06286	6.20847	-4.68963	3.18589	0
6	0.982333	0.439501	1.07617	7.28464	-4.68963	3.18589	0
7	0.977938	0.481236	1.08993	8.37457	-4.68963	3.18589	0
8	0.973126	0.521336	1.10398	9.47855	-4.68963	3.18589	0
9	0.967913	0.559817	1.11815	10.5967	-4.68963	3.18589	0
10	0.962314	0.596699	1.1323	11.729	-4.68963	3.18589	0
11	0.956347	0.632	1.14631	12.8753	-4.68963	3.18589	0
12	0.950027	0.665738	1.16007	14.0354	-4.68963	3.18589	0
13	0.94337	0.697932	1.17348	15.2089	-4.68963	3.18589	0
14	0.936391	0.728603	1.18646	16.3953	-4.68963	3.18589	0
15	0.929105	0.75777	1.19894	17.5942	-4.68963	3.18589	0
16	0.921527	0.785455	1.21085	18.8051	-4.68963	3.18589	0
17	0.913672	0.811678	1.22214	20.0272	-4.68963	3.18589	0
18	0.905556	0.836463	1.23276	21.26	-4.68963	3.18589	0
19	0.897191	0.859831	1.24268	22.5027	-4.68963	3.18589	0
20	0.888593	0.881808	1.25187	23.7546	-4.68963	3.18589	0
21	0.879775	0.902417	1.2603	25.0149	-4.68963	3.18589	0
22	0.870751	0.921683	1.26795	26.2828	-4.68963	3.18589	0
23	0.861534	0.939633	1.27481	27.5576	-4.68963	3.18589	0
24	0.852137	0.956293	1.28087	28.8385	-4.68963	3.18589	0
25	0.842574	0.971691	1.28612	30.1246	-4.68963	3.18589	0
26	0.832858	0.985855	1.29057	31.4152	-4.68963	3.18589	0
27	0.822999	0.998813	1.2942	32.7094	-4.68963	3.18589	0
28	0.813011	1.01059	1.29703	34.0064	-4.68963	3.18589	0
29	0.802905	1.02123	1.29906	35.3055	-4.68963	3.18589	0
30	0.792693	1.03075	1.30031	36.6058	-4.68963	3.18589	0
31	0.782385	1.03918	1.30078	37.9066	-4.68963	3.18589	0
32	0.771993	1.04656	1.30048	39.207	-4.68963	3.18589	0
33	0.761528	1.05291	1.29944	40.5065	-4.68963	3.18589	0
34	0.750999	1.05827	1.29767	41.8042	-4.68963	3.18589	0
35	0.740416	1.06267	1.29518	43.0993	-4.68963	3.18589	0
36	0.729789	1.06614	1.29199	44.3913	-4.68963	3.18589	0
37	0.719128	1.06871	1.28814	45.6795	-4.68963	3.18589	0
38	0.708441	1.07042	1.28362	46.9631	-4.68963	3.18589	0
39	0.697737	1.07129	1.27848	48.2416	-4.68963	3.18589	0
40	0.687024	1.07136	1.27272	49.5143	-4.68963	3.18589	0
41	0.67631	1.07066	1.26638	50.7807	-4.68963	3.18589	0
42	0.665603	1.06922	1.25947	52.0401	-4.68963	3.18589	0
43	0.654911	1.06708	1.25202	53.2922	-4.68963	3.18589	0
44	0.64424	1.06425	1.24405	54.5362	-4.68963	3.18589	0
45	0.633598	1.06077	1.23559	55.7718	-4.68963	3.18589	0
46	0.62299	1.05668	1.22665	56.9985	-4.68963	3.18589	0
47	0.612423	1.05199	1.21727	58.2157	-4.68963	3.18589	0
48	0.601903	1.04675	1.20746	59.4232	-4.68963	3.18589	0
49	0.591436	1.04097	1.19725	60.6204	-4.68963	3.18589	0
50	0.581026	1.03469	1.18666	61.8071	-4.68963	3.18589	0
51	0.570679	1.02793	1.17572	62.9828	-4.68963	3.18589	0
52	0.5604	1.02072	1.16444	64.1473	-4.68963	3.18589	0
53	0.550193	1.01308	1.15284	65.3001	-4.68963	3.18589	0
54	0.540062	1.00505	1.14096	66.4411	-4.68963	3.18589	0
55	0.530012	0.996634	1.1288	67.5699	-4.68963	3.18589	0
56	0.520045	0.987871	1.11639	68.6862	-4.68963	3.18589	0
57	0.510167	0.97878	1.10376	69.79	-4.68963	3.18589	0
58	0.500379	0.969384	1.09091	70.8809	-4.68963	3.18589	0
59	0.490685	0.959703	1.07787	71.9588	-4.68963	3.18589	0
60	0.481088	0.94976	1.06465	73.0234	-4.68963	3.18589	0
61	0.47159	0.939574	1.05128	74.0747	-4.68963	3.18589	0
62	0.462195	0.929166	1.03777	75.1125	-4.68963	3.18589	0
63	0.452903	0.918554	1.02414	76.1366	-4.68963	3.18589	0
64	0.443717	0.907757	1.0104	77.147	-4.68963	3.18589	0
65	0.43464	0.896793	0.996568	78.1436	-4.68963	3.18589	0
66	0.425672	0.885677	0.98266	79.1263	-4.68963	3.18589	0
67	0.416815	0.874428	0.968689	80.095	-4.68963	3.18589	0
68	0.408071	0.86306	0.954669	81.0496	-4.68963	3.18589	0
69	0.39944	0.851588	0.940614	81.9902	-4.68963	3.18589	0
70	0.390924	0.840027	0.926535	82.9168	-4.68963	3.18589	0
71	0.382524	0.82839	0.912444	83.8292	-4.68963	3.18589	0
72	0.37424	0.816691	0.898354	84.7276	-4.68963	3.18589	0
73	0.366073	0.804942	0.884274	85.6118	-4.68963	3.18589	0
74	0.358024	0.793155	0.870216	86.4821	-4.68963	3.18589	0
75	0.350092	0.781341	0.856188	87.3382	-4.68963	3.18589	0
76	0.342279	0.769511	0.842201	88.1804	-4.68963	3.18589	0
77	0.334584	0.757676	0.828263	89.0087	-4.68963	3.18589	0
78	0.327007	0.745846	0.814383	89.8231	-4.68963	3.18589	0
79	0.319549	0.734028	0.800568	90.6237	-4.68963	3.18589	0
80	0.312208	0.722233	0.786826	91.4105	-4.68963	3.18589	0
81	0.304986	0.710469	0.773164	92.1837	-4.68963	3.18589	0
82	0.297881	0.698743	0.759589	92.9432	-4.68963	3.18589	0
83	0.290894	0.687063	0.746106	93.6893	-4.68963	3.18589	0
84	0.284023	0.675435	0.732722	94.4221	-4.68963	3.18589	0
85	0.277269	0.663867	0.719442	95.1415	-4.68963	3.18589	0
86	0.27063	0.652364	0.706272	95.8478	-4.68963	3.18589	0
87	0.264107	0.640932	0.693215	96.541	-4.68963	3.18589	0
88	0.257697	0.629577	0.680276	97.2213	-4.68963	3.18589	0
89	0.251402	0.618304	0.66746	97.8887	-4.68963	3.18589	0
90	0.245218	0.607117	0.65477	98.5435	-4.68963	3.18589	0
91	0.239147	0.596021	0.642209	99.1857	-4.68963	3.18589	0
92	0.233187	0.58502	0.629781	99.8155	-4.68963	3.18589	0
93	0.227337	0.574117	0.617489	100.433	-4.68963	3.18589	0
94	0.221596	0.563316	0.605335	101.038	-4.68963	3.18589	0
95	0.215963	0.552621	0.593321	101.632	-4.68963	3.18589	0
96	0.210436	0.542034	0.58145	102.213	-4.68963	3.18589	0
97	0.205016	0.531558	0.569724	102.783	-4.68963	3.18589	0
98	0.1997	0.521196	0.558145	103.341	-4.68963	3.18589	0
99	0.194488	0.510949	0.546713	103.888	-4.68963	3.18589	0
100	0.189379	0.50082	0.53543	104.423	-4.68963	3.18589	0
101	0.184371	0.490811	0.524298	104.947	-4.68963	3.18589	0
102	0.179463	0.480923	0.513317	105.461	-4.68963	3.18589	0
103	0.174653	0.471158	0.502487	105.963	-4.68963	3.18589	0
104	0.169942	0.461517	0.491811	106.455	-4.68963	3.18589	0
105	0.165327	0.452	0.481287	106.936	-4.68963	3.18589	0
106	0.160807	0.44261	0.470917	107.407	-4.68963	3.18589	0
107	0.156381	0.433347	0.4607	107.868	-4.68963	3.18589	0
108	0.152047	0.424211	0.450636	108.319	-4.68963	3.18589	0
109	0.147805	0.415203	0.440726	108.759	-4.68963	3.18589	0
110	0.143653	0.406323	0.430969	109.19	-4.68963	3.18589	0
111	0.13959	0.397572	0.421365	109.612	-4.68963	3.18589	0
112	0.135614	0.38895	0.411914	110.024	-4.68963	3.18589	0
113	0.131725	0.380456	0.402614	110.426	-4.68963	3.18589	0
114	0.12792	0.372091	0.393466	110.82	-4.68963	3.18589	0
115	0.124199	0.363855	0.384468	111.204	-4.68963	3.18589	0
116	0.12056	0.355747	0.375621	111.58	-4.68963	3.18589	0
117	0.117003	0.347767	0.366922	111.947	-4.68963	3.18589	0
118	0.113525	0.339914	0.358371	112.305	-4.68963	3.18589	0
119	0.110126	0.332189	0.349968	112.655	-4.68963	3.18589	0
120	0.106804	0.32459	0.34171	112.997	-4.68963	3.18589	0
121	0.103558	0.317117	0.333598	113.33	-4.68963	3.18589	0
122	0.100387	0.309769	0.325629	113.656	-4.68963	3.18589	0
123	0.0972896	0.302545	0.317803	113.974	-4.68963	3.18589	0
124	0.0942641	0.295445	0.310118	114.284	-4.68963	3.18589	0
125	0.0913097	0.288467	0.302574	114.586	-4.68963	3.18589	0
126	0.088425	0.281612	0.295168	114.882	-4.68963	3.18589	0
127	0.0856089	0.274877	0.2879	115.169	-4.68963	3.18589	0
128	0.0828601	0.268262	0.280767	115.45	-4.68963	3.18589	0
129	0.0801775	0.261765	0.273769	115.724	-4.68963	3.18589	0
130	0.0775598	0.255387	0.266904	115.991	-4.68963	3.18589	0
131	0.075006	0.249125	0.260171	116.251	-4.68963	3.18589	0
132	0.0725147	0.242978	0.253568	116.505	-4.68963	3.18589	0
133	0.0700849	0.236946	0.247094	116.752	-4.68963	3.18589	0
134	0.0677155	0.231027	0.240746	116.992	-4.68963	3.18589	0
135	0.0654052	0.22522	0.234525	117.227	-4.68963	3.18589	0
136	0.063153	0.219523	0.228427	117.455	-4.68963	3.18589	0
137	0.0609578	0.213936	0.222451	117.678	-4.68963	3.18589	0
138	0.0588184	0.208457	0.216597	117.894	-4.68963	3.18589	0
139	0.0567338	0.203085	0.210861	118.105	-4.68963	3.18589	0
140	0.054703	0.197819	0.205243	118.311	-4.68963	3.18589	0
141	0.0527248	0.192657	0.199741	118.51	-4.68963	3.18589	0
142	0.0507982	0.187597	0.194353	118.705	-4.68963	3.18589	0
143	0.0489223	0.18264	0.189079	118.894	-4.68963	3.18589	0
144	0.0470959	0.177783	0.183915	119.078	-4.68963	3.18589	0
145	0.045318	0.173024	0.178861	119.257	-4.68963	3.18589	0
146	0.0435878	0.168364	0.173914	119.43	-4.68963	3.18589	0
147	0.0419042	0.163799	0.169075	119.6	-4.68963	3.18589	0
148	0.0402662	0.15933	0.164339	119.764	-4.68963	3.18589	0
149	0.0386729	0.154954	0.159707	119.924	-4.68963	3.18589	0
150	0.0371233	0.150671	0.155177	120.079	-4.68963	3.18589	0
151	0.0356166	0.146478	0.150746	120.229	-4.68963	3.18589	0
152	0.0341518	0.142375	0.146414	120.376	-4.68963	3.18589	0
153	0.0327281	0.13836	0.142178	120.518	-4.68963	3.18589	0
154	0.0313445	0.134432	0.138038	120.656	-4.68963	3.18589	0
155	0.0300002	0.13059	0.133991	120.79	-4.68963	3.18589	0
156	0.0286943	0.126831	0.130037	120.92	-4.68963	3.18589	0
157	0.027426	0.123156	0.126173	121.046	-4.68963	3.18589	0
158	0.0261944	0.119562	0.122398	121.169	-4.68963	3.18589	0
159	0.0249988	0.116049	0.118711	121.287	-4.68963	3.18589	0
160	0.0238383	0.112614	0.115109	121.403	-4.68963	3.18589	0
161	0.0227121	0.109257	0.111593	121.514	-4.68963	3.18589	0
162	0.0216196	0.105976	0.108159	121.622	-4.68963	3.18589	0
163	0.0205598	0.102771	0.104807	121.727	-4.68963	3.18589	0
164	0.0195321	0.0996392	0.101536	121.829	-4.68963	3.18589	0
165	0.0185357	0.0965801	0.0983427	121.927	-4.68963	3.18589	0
166	0.0175699	0.0935923	0.0952272	122.022	-4.68963	3.18589	0
167	0.016634	0.0906746	0.0921877	122.114	-4.68963	3.18589	0
168	0.0157272	0.0878257	0.0892228	122.204	-4.68963	3.18589	0
169	0.014849	0.0850445	0.0863311	122.29	-4.68963	3.18589	0
170	0.0139985	0.0823296	0.0835113	122.373	-4.68963	3.18589	0
171	0.0131752	0.07968	0.080762	122.454	-4.68963	3.18589	0
172	0.0123784	0.0770945	0.0780819	122.532	-4.68963	3.18589	0
173	0.0116075	0.0745718	0.0754698	122.608	-4.68963	3.18589	0
174	0.0108618	0.0721108	0.0729243	122.681	-4.68963	3.18589	0
175	0.0101407	0.0697104	0.0704441	122.751	-4.68963	3.18589	0
176	0.00944357	0.0673695	0.0680281	122.819	-4.68963	3.18589	0
177	0.00876987	0.0650868	0.065675	122.885	-4.68963	3.18589	0
178	0.00811901	0.0628614	0.0633835	122.948	-4.68963	3.18589	0
179	0.00749039	0.060692	0.0611525	123.009	-4.68963	3.18589	0
180	0.00688347	0.0585778	0.0589808	123.068	-4.68963	3.18589	0
181	0.00629769	0.0565174	0.0568672	123.125	-4.68963	3.18589	0
182	0.00573252	0.05451	0.0548106	123.18	-4.68963	3.18589	0
183	0.00518742	0.0525544	0.0528098	123.233	-4.68963	3.18589	0
184	0.00466187	0.0506497	0.0508638	123.284	-4.68963	3.18589	0
185	0.00415538	0.0487948	0.0489715	123.333	-4.68963	3.18589	0
186	0.00366743	0.0469888	0.0471317	123.38	-4.68963	3.18589	0
187	0.00319754	0.0452306	0.0453434	123.425	-4.68963	3.18589	0
188	0.00274524	0.0435192	0.0436057	123.469	-4.68963	3.18589	0
189	0.00231004	0.0418537	0.0419174	123.511	-4.68963	3.18589	0
190	0.00189151	0.0402332	0.0402776	123.551	-4.68963	3.18589	0
191	0.00148917	0.0386567	0.0386854	123.59	-4.68963	3.18589	0
192	0.00110261	0.0371233	0.0371397	123.627	-4.68963	3.18589	0
193	0.000731374	0.0356321	0.0356396	123.662	-4.68963	3.18589	0
194	0.000375054	0.0341822	0.0341842	123.697	-4.68963	3.18589	0
195	3.32316e-05	0.0327727	0.0327727	123.729	-4.68963	3.18589	0
196	-0.000294495	0.0314028	0.0314041	123.761	-4.68963	3.18589	0
197	-0.000608523	0.0300715	0.0300777	123.791	-4.68963	3.18589	0
198	-0.000909238	0.0287781	0.0287925	123.82	-4.68963	3.18589	0
199	-0.00119702	0.0275218	0.0275478	123.847	-4.68963	3.18589	0
200	-0.00147224	0.0263016	0.0263428	123.874	-4.68963	3.18589	0
201	-0.00173525	0.0251169	0.0251768	123.899	-4.68963	3.18589	0
202	-0.00198642	0.0239668	0.024049	123.923	-4.68963	3.18589	0
203	-0.00222609	0.0228506	0.0229588	123.946	-4.68963	3.18589	0
204	-0.0024546	0.0217674	0.0219054	123.968	-4.68963	3.18589	0
205	-0.00267227	0.0207166	0.0208882	123.989	-4.68963	3.18589	0
206	-0.00287944	0.0196974	0.0199067	124.008	-4.68963	3.18589	0
207	-0.00307641	0.0187091	0.0189603	124.027	-4.68963	3.18589	0
208	-0.0032635	0.0177509	0.0180484	124.045	-4.68963	3.18589	0
209	-0.00344101	0.0168222	0.0171705	124.063	-4.68963	3.18589	0
210	-0.00360923	0.0159222	0.0163262	124.079	-4.68963	3.18589	0
211	-0.00376845	0.0150504	0.015515	124.094	-4.68963	3.18589	0
212	-0.00391896	0.014206	0.0147366	124.109	-4.68963	3.18589	0
213	-0.00406102	0.0133884	0.0139907	124.123	-4.68963	3.18589	0
214	-0.0041949	0.0125969	0.013277	124.136	-4.68963	3.18589	0
215	-0.00432087	0.0118309	0.0125953	124.149	-4.68963	3.18589	0
216	-0.00443918	0.0110899	0.0119453	124.161	-4.68963	3.18589	0
217	-0.00455008	0.0103731	0.0113271	124.172	-4.68963	3.18589	0
218	-0.00465381	0.00967999	0.0107406	124.183	-4.68963	3.18589	0
219	-0.00475061	0.00901002	0.0101857	124.193	-4.68963	3.18589	0
220	-0.00484071	0.00836258	0.00966257	124.203	-4.68963	3.18589	0
221	-0.00492434	0.00773711	0.00917126	124.212	-4.68963	3.18589	0
222	-0.00500171	0.00713307	0.00871193	124.221	-4.68963	3.18589	0
223	-0.00507304	0.00654991	0.00828475	124.229	-4.68963	3.18589	0
224	-0.00513854	0.00598711	0.00788987	124.237	-4.68963	3.18589	0
225	-0.00519841	0.00544413	0.00752742	124.244	-4.68963	3.18589	0
226	-0.00525285	0.00492048	0.00719747	124.252	-4.68963	3.18589	0
227	-0.00530205	0.00441564	0.00689998	124.259	-4.68963	3.18589	0
228	-0.00534621	0.00392914	0.00663477	124.265	-4.68963	3.18589	0
229	-0.0053855	0.0034605	0.00640146	124.272	-4.68963	3.18589	0
230	-0.00542011	0.00300923	0.00619944	124.278	-4.68963	3.18589	0
231	-0.0054502	0.00257488	0.00602783	124.284	-4.68963	3.18589	0
232	-0.00547595	0.00215701	0.00588546	124.29	-4.68963	3.18589	0
233	-0.00549752	0.00175516	0.0057709	124.296	-4.68963	3.18589	0
234	-0.00551507	0.0013689	0.00568242	124.301	-4.68963	3.18589	0
235	-0.00552876	0.000997813	0.00561808	124.307	-4.68963	3.18589	0
236	-0.00553874	0.00064148	0.00557576	124.312	-4.68963	3.18589	0
237	-0.00554515	0.000299495	0.00555323	124.318	-4.68963	3.18589	0
238	-0.00554815	-2.85399e-05	0.00554822	124.323	-4.68963	3.18589	0
239	-0.00554786	-0.000343014	0.00555845	124.329	-4.68963	3.18589	0
240	-0.00554443	-0.000644308	0.00558174	124.335	-4.68963	3.18589	0
241	-0.00553799	-0.000932796	0.005616	124.34	-4.68963	3.18589	0
242	-0.00552866	-0.00120884	0.00565927	124.346	-4.68963	3.18589	0
243	-0.00551657	-0.0014728	0.00570979	124.352	-4.68963	3.18589	0
244	-0.00550184	-0.00172502	0.00576593	124.357	-4.68963	3.18589	0
245	-0.00548459	-0.00196585	0.00582626	124.363	-4.68963	3.18589	0
246	-0.00546493	-0.00219562	0.0058895	124.369	-4.68963	3.18589	0
247	-0.00544298	-0.00241464	0.00595454	124.375	-4.68963	3.18589	0
248	-0.00541883	-0.00262326	0.0060204	124.381	-4.68963	3.18589	0
249	-0.0053926	-0.00282176	0.00608625	124.387	-4.68963	3.18589	0
250	-0.00536438	-0.00301047	0.00615138	124.393	-4.68963	3.18589	0
251	-0.00533428	-0.00318966	0.00621518	124.4	-4.68963	3.18589	0
252	-0.00530238	-0.00335965	0.00627714	124.406	-4.68963	3.18589	0
253	-0.00526878	-0.00352071	0.00633683	124.412	-4.68963	3.18589	0
254	-0.00523358	-0.00367311	0.00639391	124.419	-4.68963	3.18589	0
255	-0.00519685	-0.00381713	0.00644807	124.425	-4.68963	3.18589	0
256	-0.00515867	-0.00395303	0.0064991	124.431	-4.68963	3.18589	0
257	-0.00511914	-0.00408107	0.00654681	124.438	-4.68963	3.18589	0
258	-0.00507833	-0.0042015	0.00659106	124.445	-4.68963	3.18589	0
259	-0.00503632	-0.00431457	0.00663174	124.451	-4.68963	3.18589	0
260	-0.00499317	-0.00442052	0.00666879	124.458	-4.68963	3.18589	0
261	-0.00494897	-0.00451957	0.00670215	124.465	-4.68963	3.18589	0
262	-0.00490377	-0.00461197	0.00673181	124.471	-4.68963	3.18589	0
263	-0.00485765	-0.00469792	0.00675776	124.478	-4.68963	3.18589	0
264	-0.00481067	-0.00477766	0.00678001	124.485	-4.68963	3.18589	0
265	-0.0047629	-0.00485138	0.00679861	124.492	-4.68963	3.18589	0
266	-0.00471438	-0.0049193	0.00681358	124.498	-4.68963	3.18589	0
267	-0.00466519	-0.00498161	0.00682499	124.505	-4.68963	3.18589	0
268	-0.00461537	-0.00503852	0.00683289	124.512	-4.68963	3.18589	0
269	-0.00456499	-0.00509021	0.00683735	124.519	-4.68963	3.18589	0
270	-0.00451409	-0.00513687	0.00683845	124.526	-4.68963	3.18589	0
271	-0.00446272	-0.00517868	0.00683627	124.533	-4.68963	3.18589	0
272	-0.00441093	-0.00521582	0.00683089	124.539	-4.68963	3.18589	0
273	-0.00435877	-0.00524846	0.00682241	124.546	-4.68963	3.18589	0
274	-0.00430629	-0.00527677	0.0068109	124.553	-4.68963	3.18589	0
275	-0.00425352	-0.0053009	0.00679647	124.56	-4.68963	3.18589	0
276	-0.00420051	-0.00532102	0.0067792	124.567	-4.68963	3.18589	0
277	-0.0041473	-0.00533728	0.00675919	124.573	-4.68963	3.18589	0
278	-0.00409393	-0.00534984	0.00673654	124.58	-4.68963	3.18589	0
279	-0.00404043	-0.00535883	0.00671134	124.587	-4.68963	3.18589	0
280	-0.00398684	-0.0053644	0.00668369	124.594	-4.68963	3.18589	0
281	-0.0039332	-0.00536669	0.00665367	124.6	-4.68963	3.18589	0
282	-0.00387953	-0.00536583	0.0066214	124.607	-4.68963	3.18589	0
283	-0.00382587	-0.00536195	0.00658694	124.613	-4.68963	3.18589	0
284	-0.00377225	-0.00535519	0.00655041	124.62	-4.68963	3.18589	0
285	-0.0037187	-0.00534565	0.00651189	124.627	-4.68963	3.18589	0
286	-0.00366524	-0.00533347	0.00647147	124.633	-4.68963	3.18589	0
287	-0.00361191	-0.00531876	0.00642923	124.639	-4.68963	3.18589	0
288	-0.00355872	-0.00530162	0.00638527	124.646	-4.68963	3.18589	0
289	-0.00350571	-0.00528218	0.00633967	124.652	-4.68963	3.18589	0
290	-0.00345288	-0.00526054	0.00629251	124.658	-4.68963	3.18589	0
291	-0.00340028	-0.00523679	0.00624387	124.665	-4.68963	3.18589	0
292	-0.00334791	-0.00521105	0.00619383	124.671	-4.68963	3.18589	0
293	-0.0032958	-0.00518341	0.00614248	124.677	-4.68963	3.18589	0
294	-0.00324397	-0.00515395	0.00608987	124.683	-4.68963	3.18589	0
295	-0.00319243	-0.00512279	0.0060361	124.689	-4.68963	3.18589	0
296	-0.0031412	-0.00508999	0.00598123	124.695	-4.68963	3.18589	0
297	-0.0030903	-0.00505565	0.00592533	124.701	-4.68963	3.18589	0
298	-0.00303974	-0.00501985	0.00586847	124.707	-4.68963	3.18589	0
299	-0.00298954	-0.00498268	0.00581072	124.713	-4.68963	3.18589	0
300	-0.00293972	-0.0049442	0.00575214	124.718	-4.68963	3.18589	0
301	-0.00289028	-0.0049045	0.00569279	124.724	-4.68963	3.18589	0
302	-0.00284123	-0.00486365	0.00563273	124.73	-4.68963	3.18589	0
303	-0.00279259	-0.00482172	0.00557203	124.735	-4.68963	3.18589	0
304	-0.00274438	-0.00477878	0.00551075	124.741	-4.68963	3.18589	0
305	-0.00269659	-0.00473489	0.00544892	124.746	-4.68963	3.18589	0
306	-0.00264924	-0.00469012	0.00538662	124.752	-4.68963	3.18589	0
307	-0.00260234	-0.00464453	0.00532389	124.757	-4.68963	3.18589	0
308	-0.00255589	-0.00459817	0.00526078	124.762	-4.68963	3.18589	0
309	-0.00250991	-0.00455112	0.00519734	124.768	-4.68963	3.18589	0
310	-0.0024644	-0.00450342	0.00513362	124.773	-4.68963	3.18589	0
311	-0.00241937	-0.00445513	0.00506966	124.778	-4.68963	3.18589	0
312	-0.00237481	-0.00440629	0.00500551	124.783	-4.68963	3.18589	0
313	-0.00233075	-0.00435697	0.00494121	124.788	-4.68963	3.18589	0
314	-0.00228718	-0.0043072	0.0048768	124.793	-4.68963	3.18589	0
315	-0.00224411	-0.00425704	0.00481232	124.797	-4.68963	3.18589	0
316	-0.00220154	-0.00420653	0.0047478	124.802	-4.68963	3.18589	0
317	-0.00215947	-0.00415571	0.00468329	124.807	-4.68963	3.18589	0
318	-0.00211792	-0.00410462	0.00461882	124.811	-4.68963	3.18589	0
319	-0.00207687	-0.00405331	0.00455441	124.816	-4.68963	3.18589	0
320	-0.00203634	-0.00400181	0.00449011	124.82	-4.68963	3.18589	0
321	-0.00199632	-0.00395015	0.00442595	124.825	-4.68963	3.18589	0
322	-0.00195682	-0.00389839	0.00436195	124.829	-4.68963	3.18589	0
323	-0.00191783	-0.00384654	0.00429814	124.834	-4.68963	3.18589	0
324	-0.00187937	-0.00379465	0.00423455	124.838	-4.68963	3.18589	0
325	-0.00184142	-0.00374274	0.0041712	124.842	-4.68963	3.18589	0
326	-0.001804	-0.00369084	0.00410813	124.846	-4.68963	3.18589	0
327	-0.00176709	-0.00363899	0.00404535	124.85	-4.68963	3.18589	0
328	-0.0017307	-0.0035872	0.00398288	124.854	-4.68963	3.18589	0
