
Current theta : [ 1.32341 , -1.66436 , 1.00729 ] 


t	x[0]	x[1]	P	theta[0]	theta[1]	theta[2]
0	0.99	-0.980122	1.3931	1.3931	1.32341	-1.66436	1.00729
1	0.980199	-0.960606	1.37243	2.76553	1.32341	-1.66436	1.00729
2	0.970593	-0.941446	1.35217	4.1177	1.32341	-1.66436	1.00729
3	0.961178	-0.922634	1.33234	5.45004	1.32341	-1.66436	1.00729
4	0.951952	-0.904164	1.31291	6.76295	1.32341	-1.66436	1.00729
5	0.94291	-0.886031	1.29388	8.05683	1.32341	-1.66436	1.00729
6	0.93405	-0.868227	1.27525	9.33208	1.32341	-1.66436	1.00729
7	0.925368	-0.850748	1.25701	10.5891	1.32341	-1.66436	1.00729
8	0.91686	-0.833587	1.23915	11.8282	1.32341	-1.66436	1.00729
9	0.908524	-0.816738	1.22167	13.0499	1.32341	-1.66436	1.00729
10	0.900357	-0.800196	1.20456	14.2545	1.32341	-1.66436	1.00729
11	0.892355	-0.783955	1.18781	15.4423	1.32341	-1.66436	1.00729
12	0.884515	-0.76801	1.17141	16.6137	1.32341	-1.66436	1.00729
13	0.876835	-0.752355	1.15537	17.7691	1.32341	-1.66436	1.00729
14	0.869312	-0.736984	1.13967	18.9087	1.32341	-1.66436	1.00729
15	0.861942	-0.721894	1.12431	20.033	1.32341	-1.66436	1.00729
16	0.854723	-0.707078	1.10928	21.1423	1.32341	-1.66436	1.00729
17	0.847652	-0.692531	1.09458	22.2369	1.32341	-1.66436	1.00729
18	0.840727	-0.678249	1.08021	23.3171	1.32341	-1.66436	1.00729
19	0.833944	-0.664228	1.06614	24.3833	1.32341	-1.66436	1.00729
20	0.827302	-0.650461	1.05239	25.4356	1.32341	-1.66436	1.00729
21	0.820798	-0.636944	1.03894	26.4746	1.32341	-1.66436	1.00729
22	0.814428	-0.623673	1.0258	27.5004	1.32341	-1.66436	1.00729
23	0.808191	-0.610644	1.01295	28.5133	1.32341	-1.66436	1.00729
24	0.802085	-0.597851	1.00038	29.5137	1.32341	-1.66436	1.00729
25	0.796106	-0.585292	0.988105	30.5018	1.32341	-1.66436	1.00729
26	0.790254	-0.57296	0.976106	31.4779	1.32341	-1.66436	1.00729
27	0.784524	-0.560852	0.964382	32.4423	1.32341	-1.66436	1.00729
28	0.778915	-0.548965	0.952928	33.3952	1.32341	-1.66436	1.00729
29	0.773426	-0.537293	0.941739	34.337	1.32341	-1.66436	1.00729
30	0.768053	-0.525834	0.930809	35.2678	1.32341	-1.66436	1.00729
31	0.762794	-0.514582	0.920136	36.1879	1.32341	-1.66436	1.00729
32	0.757649	-0.503535	0.909714	37.0976	1.32341	-1.66436	1.00729
33	0.752613	-0.492689	0.899538	37.9972	1.32341	-1.66436	1.00729
34	0.747686	-0.482039	0.889605	38.8868	1.32341	-1.66436	1.00729
35	0.742866	-0.471582	0.879909	39.7667	1.32341	-1.66436	1.00729
36	0.73815	-0.461316	0.870447	40.6371	1.32341	-1.66436	1.00729
37	0.733537	-0.451235	0.861214	41.4984	1.32341	-1.66436	1.00729
38	0.729025	-0.441338	0.852206	42.3506	1.32341	-1.66436	1.00729
39	0.724611	-0.431619	0.84342	43.194	1.32341	-1.66436	1.00729
40	0.720295	-0.422077	0.83485	44.0288	1.32341	-1.66436	1.00729
41	0.716074	-0.412708	0.826493	44.8553	1.32341	-1.66436	1.00729
42	0.711947	-0.403509	0.818345	45.6737	1.32341	-1.66436	1.00729
43	0.707912	-0.394476	0.810402	46.4841	1.32341	-1.66436	1.00729
44	0.703967	-0.385606	0.80266	47.2867	1.32341	-1.66436	1.00729
45	0.700111	-0.376898	0.795115	48.0818	1.32341	-1.66436	1.00729
46	0.696342	-0.368347	0.787764	48.8696	1.32341	-1.66436	1.00729
47	0.692659	-0.35995	0.780603	49.6502	1.32341	-1.66436	1.00729
48	0.689059	-0.351705	0.773628	50.4238	1.32341	-1.66436	1.00729
49	0.685542	-0.34361	0.766835	51.1907	1.32341	-1.66436	1.00729
50	0.682106	-0.335661	0.760222	51.9509	1.32341	-1.66436	1.00729
51	0.67875	-0.327855	0.753784	52.7047	1.32341	-1.66436	1.00729
52	0.675471	-0.32019	0.747518	53.4522	1.32341	-1.66436	1.00729
53	0.672269	-0.312664	0.741421	54.1936	1.32341	-1.66436	1.00729
54	0.669143	-0.305273	0.735489	54.9291	1.32341	-1.66436	1.00729
55	0.66609	-0.298016	0.729719	55.6588	1.32341	-1.66436	1.00729
56	0.66311	-0.29089	0.724107	56.3829	1.32341	-1.66436	1.00729
57	0.660201	-0.283892	0.718651	57.1016	1.32341	-1.66436	1.00729
58	0.657362	-0.27702	0.713348	57.8149	1.32341	-1.66436	1.00729
59	0.654592	-0.270272	0.708193	58.5231	1.32341	-1.66436	1.00729
60	0.651889	-0.263646	0.703184	59.2263	1.32341	-1.66436	1.00729
61	0.649252	-0.257138	0.698319	59.9246	1.32341	-1.66436	1.00729
62	0.646681	-0.250748	0.693593	60.6182	1.32341	-1.66436	1.00729
63	0.644174	-0.244473	0.689004	61.3072	1.32341	-1.66436	1.00729
64	0.641729	-0.23831	0.684549	61.9918	1.32341	-1.66436	1.00729
65	0.639346	-0.232258	0.680226	62.672	1.32341	-1.66436	1.00729
66	0.637023	-0.226315	0.67603	63.348	1.32341	-1.66436	1.00729
67	0.63476	-0.220478	0.67196	64.02	1.32341	-1.66436	1.00729
68	0.632555	-0.214746	0.668013	64.688	1.32341	-1.66436	1.00729
69	0.630408	-0.209117	0.664187	65.3522	1.32341	-1.66436	1.00729
70	0.628317	-0.203588	0.660477	66.0127	1.32341	-1.66436	1.00729
71	0.626281	-0.198159	0.656882	66.6695	1.32341	-1.66436	1.00729
72	0.624299	-0.192826	0.6534	67.3229	1.32341	-1.66436	1.00729
73	0.622371	-0.187589	0.650027	67.973	1.32341	-1.66436	1.00729
74	0.620495	-0.182446	0.646762	68.6197	1.32341	-1.66436	1.00729
75	0.618671	-0.177395	0.643601	69.2633	1.32341	-1.66436	1.00729
76	0.616897	-0.172433	0.640542	69.9039	1.32341	-1.66436	1.00729
77	0.615172	-0.167561	0.637584	70.5415	1.32341	-1.66436	1.00729
78	0.613497	-0.162775	0.634723	71.1762	1.32341	-1.66436	1.00729
79	0.611869	-0.158074	0.631958	71.8081	1.32341	-1.66436	1.00729
80	0.610288	-0.153457	0.629286	72.4374	1.32341	-1.66436	1.00729
81	0.608754	-0.148922	0.626705	73.0641	1.32341	-1.66436	1.00729
82	0.607264	-0.144468	0.624212	73.6883	1.32341	-1.66436	1.00729
83	0.60582	-0.140093	0.621807	74.3102	1.32341	-1.66436	1.00729
84	0.604419	-0.135796	0.619486	74.9296	1.32341	-1.66436	1.00729
85	0.603061	-0.131574	0.617247	75.5469	1.32341	-1.66436	1.00729
86	0.601745	-0.127428	0.615089	76.162	1.32341	-1.66436	1.00729
87	0.600471	-0.123355	0.61301	76.775	1.32341	-1.66436	1.00729
88	0.599237	-0.119354	0.611008	77.386	1.32341	-1.66436	1.00729
89	0.598044	-0.115424	0.60908	77.9951	1.32341	-1.66436	1.00729
90	0.596889	-0.111564	0.607226	78.6023	1.32341	-1.66436	1.00729
91	0.595774	-0.107771	0.605443	79.2077	1.32341	-1.66436	1.00729
92	0.594696	-0.104046	0.603729	79.8115	1.32341	-1.66436	1.00729
93	0.593656	-0.100386	0.602083	80.4136	1.32341	-1.66436	1.00729
94	0.592652	-0.0967903	0.600504	81.0141	1.32341	-1.66436	1.00729
95	0.591684	-0.0932581	0.598988	81.613	1.32341	-1.66436	1.00729
96	0.590751	-0.089788	0.597536	82.2106	1.32341	-1.66436	1.00729
97	0.589853	-0.0863788	0.596145	82.8067	1.32341	-1.66436	1.00729
98	0.58899	-0.0830294	0.594813	83.4015	1.32341	-1.66436	1.00729
99	0.588159	-0.0797387	0.59354	83.9951	1.32341	-1.66436	1.00729


t	x[0]	x[1]	P	theta[0]	theta[1]	theta[2]
0	0.99	-0.980112	1.3931	1.3931	1.32441	-1.66436	1.00729
1	0.980199	-0.960587	1.37241	2.76551	1.32441	-1.66436	1.00729
2	0.970593	-0.941417	1.35215	4.11766	1.32441	-1.66436	1.00729
3	0.961179	-0.922595	1.33231	5.44997	1.32441	-1.66436	1.00729
4	0.951953	-0.904117	1.31288	6.76285	1.32441	-1.66436	1.00729
5	0.942912	-0.885975	1.29384	8.05669	1.32441	-1.66436	1.00729
6	0.934052	-0.868163	1.27521	9.3319	1.32441	-1.66436	1.00729
7	0.92537	-0.850675	1.25696	10.5889	1.32441	-1.66436	1.00729
8	0.916864	-0.833506	1.2391	11.828	1.32441	-1.66436	1.00729
9	0.908529	-0.81665	1.22161	13.0496	1.32441	-1.66436	1.00729
10	0.900362	-0.8001	1.2045	14.2541	1.32441	-1.66436	1.00729
11	0.892361	-0.783851	1.18774	15.4418	1.32441	-1.66436	1.00729
12	0.884523	-0.767899	1.17134	16.6132	1.32441	-1.66436	1.00729
13	0.876844	-0.752237	1.1553	17.7685	1.32441	-1.66436	1.00729
14	0.869321	-0.736859	1.1396	18.9081	1.32441	-1.66436	1.00729
15	0.861953	-0.721762	1.12423	20.0323	1.32441	-1.66436	1.00729
16	0.854735	-0.70694	1.1092	21.1415	1.32441	-1.66436	1.00729
17	0.847666	-0.692387	1.0945	22.236	1.32441	-1.66436	1.00729
18	0.840742	-0.678099	1.08012	23.3161	1.32441	-1.66436	1.00729
19	0.833961	-0.664071	1.06606	24.3822	1.32441	-1.66436	1.00729
20	0.82732	-0.650298	1.05231	25.4345	1.32441	-1.66436	1.00729
21	0.820817	-0.636776	1.03886	26.4733	1.32441	-1.66436	1.00729
22	0.814449	-0.6235	1.02571	27.4991	1.32441	-1.66436	1.00729
23	0.808214	-0.610465	1.01286	28.5119	1.32441	-1.66436	1.00729
24	0.80211	-0.597668	1.00029	29.5122	1.32441	-1.66436	1.00729
25	0.796133	-0.585103	0.988015	30.5002	1.32441	-1.66436	1.00729
26	0.790282	-0.572766	0.976016	31.4762	1.32441	-1.66436	1.00729
27	0.784554	-0.560654	0.964292	32.4405	1.32441	-1.66436	1.00729
28	0.778948	-0.548762	0.952837	33.3934	1.32441	-1.66436	1.00729
29	0.77346	-0.537086	0.941648	34.335	1.32441	-1.66436	1.00729
30	0.768089	-0.525622	0.93072	35.2657	1.32441	-1.66436	1.00729
31	0.762833	-0.514366	0.920047	36.1858	1.32441	-1.66436	1.00729
32	0.757689	-0.503315	0.909626	37.0954	1.32441	-1.66436	1.00729
33	0.752656	-0.492464	0.899451	37.9949	1.32441	-1.66436	1.00729
34	0.747732	-0.481811	0.889519	38.8844	1.32441	-1.66436	1.00729
35	0.742913	-0.47135	0.879825	39.7642	1.32441	-1.66436	1.00729
36	0.7382	-0.46108	0.870364	40.6346	1.32441	-1.66436	1.00729
37	0.733589	-0.450996	0.861133	41.4957	1.32441	-1.66436	1.00729
38	0.729079	-0.441095	0.852127	42.3478	1.32441	-1.66436	1.00729
39	0.724668	-0.431373	0.843343	43.1912	1.32441	-1.66436	1.00729
40	0.720354	-0.421828	0.834775	44.0259	1.32441	-1.66436	1.00729
41	0.716136	-0.412455	0.82642	44.8524	1.32441	-1.66436	1.00729
42	0.712012	-0.403253	0.818275	45.6706	1.32441	-1.66436	1.00729
43	0.707979	-0.394217	0.810334	46.481	1.32441	-1.66436	1.00729
44	0.704037	-0.385344	0.802595	47.2836	1.32441	-1.66436	1.00729
45	0.700184	-0.376633	0.795053	48.0786	1.32441	-1.66436	1.00729
46	0.696417	-0.368079	0.787705	48.8663	1.32441	-1.66436	1.00729
47	0.692736	-0.35968	0.780547	49.6469	1.32441	-1.66436	1.00729
48	0.68914	-0.351432	0.773575	50.4204	1.32441	-1.66436	1.00729
49	0.685625	-0.343334	0.766786	51.1872	1.32441	-1.66436	1.00729
50	0.682192	-0.335382	0.760176	51.9474	1.32441	-1.66436	1.00729
51	0.678838	-0.327574	0.753741	52.7011	1.32441	-1.66436	1.00729
52	0.675562	-0.319907	0.747479	53.4486	1.32441	-1.66436	1.00729
53	0.672363	-0.312378	0.741386	54.19	1.32441	-1.66436	1.00729
54	0.66924	-0.304986	0.735458	54.9255	1.32441	-1.66436	1.00729
55	0.66619	-0.297726	0.729691	55.6552	1.32441	-1.66436	1.00729
56	0.663212	-0.290598	0.724084	56.3792	1.32441	-1.66436	1.00729
57	0.660306	-0.283598	0.718632	57.0979	1.32441	-1.66436	1.00729
58	0.65747	-0.276724	0.713333	57.8112	1.32441	-1.66436	1.00729
59	0.654703	-0.269974	0.708182	58.5194	1.32441	-1.66436	1.00729
60	0.652003	-0.263345	0.703178	59.2226	1.32441	-1.66436	1.00729
61	0.64937	-0.256836	0.698317	59.9209	1.32441	-1.66436	1.00729
62	0.646802	-0.250444	0.693595	60.6145	1.32441	-1.66436	1.00729
63	0.644297	-0.244167	0.689011	61.3035	1.32441	-1.66436	1.00729
64	0.641856	-0.238003	0.684561	61.9881	1.32441	-1.66436	1.00729
65	0.639476	-0.231949	0.680242	62.6683	1.32441	-1.66436	1.00729
66	0.637156	-0.226004	0.676051	63.3443	1.32441	-1.66436	1.00729
67	0.634896	-0.220166	0.671986	64.0163	1.32441	-1.66436	1.00729
68	0.632694	-0.214432	0.668044	64.6844	1.32441	-1.66436	1.00729
69	0.63055	-0.208801	0.664222	65.3486	1.32441	-1.66436	1.00729
70	0.628462	-0.203271	0.660518	66.0091	1.32441	-1.66436	1.00729
71	0.626429	-0.19784	0.656928	66.666	1.32441	-1.66436	1.00729
72	0.624451	-0.192507	0.653451	67.3195	1.32441	-1.66436	1.00729
73	0.622526	-0.187268	0.650083	67.9696	1.32441	-1.66436	1.00729
74	0.620653	-0.182124	0.646822	68.6164	1.32441	-1.66436	1.00729
75	0.618832	-0.177071	0.643667	69.2601	1.32441	-1.66436	1.00729
76	0.617061	-0.172108	0.640614	69.9007	1.32441	-1.66436	1.00729
77	0.61534	-0.167234	0.63766	70.5383	1.32441	-1.66436	1.00729
78	0.613668	-0.162447	0.634805	71.1731	1.32441	-1.66436	1.00729
79	0.612043	-0.157745	0.632045	71.8052	1.32441	-1.66436	1.00729
80	0.610466	-0.153127	0.629378	72.4346	1.32441	-1.66436	1.00729
81	0.608935	-0.148591	0.626802	73.0614	1.32441	-1.66436	1.00729
82	0.607449	-0.144136	0.624315	73.6857	1.32441	-1.66436	1.00729
83	0.606007	-0.139759	0.621914	74.3076	1.32441	-1.66436	1.00729
84	0.60461	-0.135461	0.619599	74.9272	1.32441	-1.66436	1.00729
85	0.603255	-0.131239	0.617366	75.5446	1.32441	-1.66436	1.00729
86	0.601943	-0.127091	0.615213	76.1598	1.32441	-1.66436	1.00729
87	0.600672	-0.123017	0.613139	76.7729	1.32441	-1.66436	1.00729
88	0.599442	-0.119016	0.611142	77.3841	1.32441	-1.66436	1.00729
89	0.598251	-0.115084	0.60922	77.9933	1.32441	-1.66436	1.00729
90	0.597101	-0.111223	0.607371	78.6007	1.32441	-1.66436	1.00729
91	0.595988	-0.107429	0.605593	79.2062	1.32441	-1.66436	1.00729
92	0.594914	-0.103703	0.603885	79.8101	1.32441	-1.66436	1.00729
93	0.593877	-0.100042	0.602244	80.4124	1.32441	-1.66436	1.00729
94	0.592877	-0.0964458	0.60067	81.013	1.32441	-1.66436	1.00729
95	0.591912	-0.0929127	0.59916	81.6122	1.32441	-1.66436	1.00729
96	0.590983	-0.0894416	0.597713	82.2099	1.32441	-1.66436	1.00729
97	0.590089	-0.0860316	0.596327	82.8062	1.32441	-1.66436	1.00729
98	0.589228	-0.0826813	0.595001	83.4012	1.32441	-1.66436	1.00729
99	0.588402	-0.0793897	0.593733	83.995	1.32441	-1.66436	1.00729


t	x[0]	x[1]	P	theta[0]	theta[1]	theta[2]
0	0.99	-0.980132	1.39311	1.39311	1.32341	-1.66336	1.00729
1	0.980199	-0.960626	1.37244	2.76555	1.32341	-1.66336	1.00729
2	0.970592	-0.941475	1.35219	4.11774	1.32341	-1.66336	1.00729
3	0.961178	-0.922672	1.33236	5.4501	1.32341	-1.66336	1.00729
4	0.951951	-0.904211	1.31294	6.76304	1.32341	-1.66336	1.00729
5	0.942909	-0.886086	1.29392	8.05696	1.32341	-1.66336	1.00729
6	0.934048	-0.86829	1.27529	9.33226	1.32341	-1.66336	1.00729
7	0.925365	-0.850819	1.25706	10.5893	1.32341	-1.66336	1.00729
8	0.916857	-0.833665	1.2392	11.8285	1.32341	-1.66336	1.00729
9	0.90852	-0.816823	1.22172	13.0502	1.32341	-1.66336	1.00729
10	0.900352	-0.800288	1.20461	14.2549	1.32341	-1.66336	1.00729
11	0.892349	-0.784053	1.18787	15.4427	1.32341	-1.66336	1.00729
12	0.884509	-0.768114	1.17148	16.6142	1.32341	-1.66336	1.00729
13	0.876827	-0.752465	1.15543	17.7696	1.32341	-1.66336	1.00729
14	0.869303	-0.7371	1.13974	18.9094	1.32341	-1.66336	1.00729
15	0.861932	-0.722015	1.12438	20.0337	1.32341	-1.66336	1.00729
16	0.854712	-0.707204	1.10936	21.1431	1.32341	-1.66336	1.00729
17	0.84764	-0.692663	1.09466	22.2378	1.32341	-1.66336	1.00729
18	0.840713	-0.678386	1.08028	23.318	1.32341	-1.66336	1.00729
19	0.833929	-0.664368	1.06622	24.3843	1.32341	-1.66336	1.00729
20	0.827285	-0.650606	1.05247	25.4367	1.32341	-1.66336	1.00729
21	0.820779	-0.637093	1.03902	26.4758	1.32341	-1.66336	1.00729
22	0.814408	-0.623827	1.02588	27.5016	1.32341	-1.66336	1.00729
23	0.80817	-0.610801	1.01302	28.5147	1.32341	-1.66336	1.00729
24	0.802062	-0.598012	1.00046	29.5151	1.32341	-1.66336	1.00729
25	0.796082	-0.585456	0.988183	30.5033	1.32341	-1.66336	1.00729
26	0.790228	-0.573127	0.976183	31.4795	1.32341	-1.66336	1.00729
27	0.784496	-0.561023	0.964459	32.4439	1.32341	-1.66336	1.00729
28	0.778886	-0.549138	0.953004	33.3969	1.32341	-1.66336	1.00729
29	0.773395	-0.537469	0.941813	34.3388	1.32341	-1.66336	1.00729
30	0.76802	-0.526012	0.930883	35.2696	1.32341	-1.66336	1.00729
31	0.76276	-0.514763	0.920208	36.1898	1.32341	-1.66336	1.00729
32	0.757612	-0.503718	0.909785	37.0996	1.32341	-1.66336	1.00729
33	0.752575	-0.492874	0.899607	37.9992	1.32341	-1.66336	1.00729
34	0.747646	-0.482226	0.889672	38.8889	1.32341	-1.66336	1.00729
35	0.742824	-0.471771	0.879975	39.7689	1.32341	-1.66336	1.00729
36	0.738106	-0.461506	0.870511	40.6394	1.32341	-1.66336	1.00729
37	0.733491	-0.451427	0.861276	41.5007	1.32341	-1.66336	1.00729
38	0.728977	-0.441531	0.852266	42.3529	1.32341	-1.66336	1.00729
39	0.724562	-0.431814	0.843477	43.1964	1.32341	-1.66336	1.00729
40	0.720244	-0.422273	0.834905	44.0313	1.32341	-1.66336	1.00729
41	0.716021	-0.412905	0.826545	44.8579	1.32341	-1.66336	1.00729
42	0.711892	-0.403707	0.818394	45.6763	1.32341	-1.66336	1.00729
43	0.707855	-0.394675	0.810448	46.4867	1.32341	-1.66336	1.00729
44	0.703908	-0.385806	0.802704	47.2894	1.32341	-1.66336	1.00729
45	0.70005	-0.377098	0.795156	48.0846	1.32341	-1.66336	1.00729
46	0.696279	-0.368548	0.787802	48.8724	1.32341	-1.66336	1.00729
47	0.692593	-0.360152	0.780638	49.653	1.32341	-1.66336	1.00729
48	0.688992	-0.351908	0.773659	50.4267	1.32341	-1.66336	1.00729
49	0.685473	-0.343813	0.766864	51.1935	1.32341	-1.66336	1.00729
50	0.682035	-0.335864	0.760247	51.9538	1.32341	-1.66336	1.00729
51	0.678676	-0.328058	0.753806	52.7076	1.32341	-1.66336	1.00729
52	0.675395	-0.320394	0.747537	53.4551	1.32341	-1.66336	1.00729
53	0.672192	-0.312867	0.741436	54.1966	1.32341	-1.66336	1.00729
54	0.669063	-0.305477	0.735501	54.9321	1.32341	-1.66336	1.00729
55	0.666008	-0.298219	0.729727	55.6618	1.32341	-1.66336	1.00729
56	0.663026	-0.291093	0.724112	56.3859	1.32341	-1.66336	1.00729
57	0.660115	-0.284095	0.718653	57.1045	1.32341	-1.66336	1.00729
58	0.657274	-0.277223	0.713345	57.8179	1.32341	-1.66336	1.00729
59	0.654502	-0.270474	0.708187	58.5261	1.32341	-1.66336	1.00729
60	0.651797	-0.263847	0.703175	59.2293	1.32341	-1.66336	1.00729
61	0.649159	-0.25734	0.698305	59.9276	1.32341	-1.66336	1.00729
62	0.646585	-0.250949	0.693576	60.6211	1.32341	-1.66336	1.00729
63	0.644076	-0.244673	0.688984	61.3101	1.32341	-1.66336	1.00729
64	0.641629	-0.23851	0.684525	61.9946	1.32341	-1.66336	1.00729
65	0.639244	-0.232457	0.680198	62.6748	1.32341	-1.66336	1.00729
66	0.636919	-0.226513	0.675999	63.3508	1.32341	-1.66336	1.00729
67	0.634654	-0.220676	0.671925	64.0228	1.32341	-1.66336	1.00729
68	0.632447	-0.214943	0.667975	64.6907	1.32341	-1.66336	1.00729
69	0.630298	-0.209313	0.664144	65.3549	1.32341	-1.66336	1.00729
70	0.628205	-0.203784	0.660431	66.0153	1.32341	-1.66336	1.00729
71	0.626167	-0.198353	0.656833	66.6721	1.32341	-1.66336	1.00729
72	0.624183	-0.19302	0.653347	67.3255	1.32341	-1.66336	1.00729
73	0.622253	-0.187782	0.64997	67.9755	1.32341	-1.66336	1.00729
74	0.620375	-0.182638	0.646701	68.6222	1.32341	-1.66336	1.00729
75	0.618549	-0.177585	0.643537	69.2657	1.32341	-1.66336	1.00729
76	0.616773	-0.172623	0.640475	69.9062	1.32341	-1.66336	1.00729
77	0.615047	-0.167749	0.637513	70.5437	1.32341	-1.66336	1.00729
78	0.613369	-0.162962	0.634649	71.1783	1.32341	-1.66336	1.00729
79	0.61174	-0.158261	0.63188	71.8102	1.32341	-1.66336	1.00729
80	0.610157	-0.153643	0.629204	72.4394	1.32341	-1.66336	1.00729
81	0.608621	-0.149107	0.62662	73.066	1.32341	-1.66336	1.00729
82	0.60713	-0.144651	0.624124	73.6902	1.32341	-1.66336	1.00729
83	0.605683	-0.140275	0.621715	74.3119	1.32341	-1.66336	1.00729
84	0.60428	-0.135976	0.61939	74.9313	1.32341	-1.66336	1.00729
85	0.602921	-0.131754	0.617149	75.5484	1.32341	-1.66336	1.00729
86	0.601603	-0.127606	0.614988	76.1634	1.32341	-1.66336	1.00729
87	0.600327	-0.123532	0.612905	76.7763	1.32341	-1.66336	1.00729
88	0.599092	-0.11953	0.6109	77.3872	1.32341	-1.66336	1.00729
89	0.597896	-0.115599	0.608969	77.9962	1.32341	-1.66336	1.00729
90	0.59674	-0.111737	0.607112	78.6033	1.32341	-1.66336	1.00729
91	0.595623	-0.107943	0.605325	79.2086	1.32341	-1.66336	1.00729
92	0.594544	-0.104216	0.603609	79.8122	1.32341	-1.66336	1.00729
93	0.593502	-0.100555	0.60196	80.4142	1.32341	-1.66336	1.00729
94	0.592496	-0.0969584	0.600377	81.0146	1.32341	-1.66336	1.00729
95	0.591526	-0.0934249	0.598859	81.6134	1.32341	-1.66336	1.00729
96	0.590592	-0.0899534	0.597403	82.2108	1.32341	-1.66336	1.00729
97	0.589693	-0.0865429	0.596009	82.8068	1.32341	-1.66336	1.00729
98	0.588827	-0.0831921	0.594675	83.4015	1.32341	-1.66336	1.00729
99	0.587995	-0.0799	0.593399	83.9949	1.32341	-1.66336	1.00729


t	x[0]	x[1]	P	theta[0]	theta[1]	theta[2]
0	0.99	-0.980122	1.3931	1.3931	1.32341	-1.66436	1.00829
1	0.980199	-0.960606	1.37243	2.76553	1.32341	-1.66436	1.00829
2	0.970593	-0.941445	1.35217	4.1177	1.32341	-1.66436	1.00829
3	0.961178	-0.922633	1.33233	5.45004	1.32341	-1.66436	1.00829
4	0.951952	-0.904162	1.31291	6.76294	1.32341	-1.66436	1.00829
5	0.94291	-0.886028	1.29388	8.05682	1.32341	-1.66436	1.00829
6	0.93405	-0.868224	1.27525	9.33207	1.32341	-1.66436	1.00829
7	0.925368	-0.850744	1.25701	10.5891	1.32341	-1.66436	1.00829
8	0.91686	-0.833581	1.23915	11.8282	1.32341	-1.66436	1.00829
9	0.908525	-0.816731	1.22167	13.0499	1.32341	-1.66436	1.00829
10	0.900357	-0.800188	1.20455	14.2544	1.32341	-1.66436	1.00829
11	0.892355	-0.783946	1.1878	15.4422	1.32341	-1.66436	1.00829
12	0.884516	-0.767999	1.17141	16.6137	1.32341	-1.66436	1.00829
