
Current theta : [ -5.45208 , 3.47963 ] 


t	x[0]	x[1]	P	theta[0]	theta[1]	theta[2]
0	0.999	0.161041	1.0119	1.0119	-5.45208	3.47963	0
1	0.99739	0.219891	1.02134	2.03324	-5.45208	3.47963	0
2	0.995191	0.27658	1.03291	3.06615	-5.45208	3.47963	0
3	0.992425	0.33114	1.04621	4.11236	-5.45208	3.47963	0
4	0.989113	0.3836	1.06089	5.17325	-5.45208	3.47963	0
5	0.985277	0.433987	1.07662	6.24988	-5.45208	3.47963	0
6	0.980938	0.48233	1.09311	7.34298	-5.45208	3.47963	0
7	0.976114	0.528656	1.11008	8.45306	-5.45208	3.47963	0
8	0.970828	0.572991	1.12731	9.58037	-5.45208	3.47963	0
9	0.965098	0.615362	1.14459	10.725	-5.45208	3.47963	0
10	0.958944	0.655796	1.16174	11.8867	-5.45208	3.47963	0
11	0.952386	0.694321	1.17861	13.0653	-5.45208	3.47963	0
12	0.945443	0.730965	1.19506	14.2604	-5.45208	3.47963	0
13	0.938133	0.765755	1.21098	15.4714	-5.45208	3.47963	0
14	0.930476	0.79872	1.22627	16.6976	-5.45208	3.47963	0
15	0.922489	0.829891	1.24085	17.9385	-5.45208	3.47963	0
16	0.91419	0.859297	1.25464	19.1931	-5.45208	3.47963	0
17	0.905597	0.886969	1.2676	20.4607	-5.45208	3.47963	0
18	0.896727	0.91294	1.27968	21.7404	-5.45208	3.47963	0
19	0.887598	0.937243	1.29083	23.0312	-5.45208	3.47963	0
20	0.878225	0.95991	1.30104	24.3323	-5.45208	3.47963	0
21	0.868626	0.980977	1.31028	25.6426	-5.45208	3.47963	0
22	0.858816	1.00048	1.31853	26.9611	-5.45208	3.47963	0
23	0.848812	1.01845	1.32579	28.2869	-5.45208	3.47963	0
24	0.838627	1.03493	1.33206	29.6189	-5.45208	3.47963	0
25	0.828278	1.04996	1.33733	30.9563	-5.45208	3.47963	0
26	0.817778	1.06357	1.34162	32.2979	-5.45208	3.47963	0
27	0.807142	1.0758	1.34493	33.6428	-5.45208	3.47963	0
28	0.796384	1.0867	1.34727	34.9901	-5.45208	3.47963	0
29	0.785517	1.09629	1.34866	36.3387	-5.45208	3.47963	0
30	0.774555	1.10463	1.34912	37.6879	-5.45208	3.47963	0
31	0.763508	1.11175	1.34868	39.0365	-5.45208	3.47963	0
32	0.752391	1.11769	1.34734	40.3839	-5.45208	3.47963	0
33	0.741214	1.12249	1.34513	41.729	-5.45208	3.47963	0
34	0.729989	1.1262	1.34209	43.0711	-5.45208	3.47963	0
35	0.718727	1.12885	1.33823	44.4093	-5.45208	3.47963	0
36	0.707439	1.13049	1.33359	45.7429	-5.45208	3.47963	0
37	0.696134	1.13115	1.32819	47.0711	-5.45208	3.47963	0
38	0.684822	1.13087	1.32206	48.3932	-5.45208	3.47963	0
39	0.673514	1.1297	1.31524	49.7084	-5.45208	3.47963	0
40	0.662216	1.12768	1.30774	51.0162	-5.45208	3.47963	0
41	0.65094	1.12483	1.2996	52.3158	-5.45208	3.47963	0
42	0.639691	1.12121	1.29086	53.6066	-5.45208	3.47963	0
43	0.628479	1.11684	1.28153	54.8882	-5.45208	3.47963	0
44	0.617311	1.11177	1.27166	56.1598	-5.45208	3.47963	0
45	0.606193	1.10604	1.26126	57.4211	-5.45208	3.47963	0
46	0.595133	1.09967	1.25038	58.6715	-5.45208	3.47963	0
47	0.584136	1.0927	1.23904	59.9105	-5.45208	3.47963	0
48	0.573209	1.08517	1.22726	61.1378	-5.45208	3.47963	0
49	0.562357	1.07711	1.21507	62.3528	-5.45208	3.47963	0
50	0.551586	1.06855	1.20251	63.5553	-5.45208	3.47963	0
51	0.540901	1.05952	1.1896	64.7449	-5.45208	3.47963	0
52	0.530306	1.05006	1.17637	65.9213	-5.45208	3.47963	0
53	0.519805	1.04019	1.16283	67.0841	-5.45208	3.47963	0
54	0.509403	1.02994	1.14903	68.2332	-5.45208	3.47963	0
55	0.499104	1.01934	1.13497	69.3681	-5.45208	3.47963	0
56	0.488911	1.00842	1.12069	70.4888	-5.45208	3.47963	0
57	0.478826	0.997201	1.1062	71.595	-5.45208	3.47963	0
58	0.468854	0.985711	1.09154	72.6866	-5.45208	3.47963	0
59	0.458997	0.973972	1.07671	73.7633	-5.45208	3.47963	0
60	0.449257	0.962009	1.06174	74.825	-5.45208	3.47963	0
61	0.439637	0.949842	1.04665	75.8717	-5.45208	3.47963	0
62	0.430139	0.937495	1.03146	76.9031	-5.45208	3.47963	0
63	0.420764	0.924986	1.01619	77.9193	-5.45208	3.47963	0
64	0.411514	0.912335	1.00085	78.9202	-5.45208	3.47963	0
65	0.402391	0.899562	0.98546	79.9056	-5.45208	3.47963	0
66	0.393395	0.886684	0.970036	80.8757	-5.45208	3.47963	0
67	0.384528	0.873719	0.954592	81.8303	-5.45208	3.47963	0
68	0.375791	0.860681	0.939144	82.7694	-5.45208	3.47963	0
69	0.367184	0.847588	0.923704	83.6931	-5.45208	3.47963	0
70	0.358708	0.834453	0.908286	84.6014	-5.45208	3.47963	0
71	0.350364	0.82129	0.892901	85.4943	-5.45208	3.47963	0
72	0.342151	0.808113	0.877562	86.3719	-5.45208	3.47963	0
73	0.33407	0.794935	0.862278	87.2341	-5.45208	3.47963	0
74	0.326121	0.781766	0.847061	88.0812	-5.45208	3.47963	0
75	0.318303	0.768619	0.83192	88.9131	-5.45208	3.47963	0
76	0.310617	0.755503	0.816865	89.73	-5.45208	3.47963	0
77	0.303062	0.74243	0.801903	90.5319	-5.45208	3.47963	0
78	0.295637	0.729407	0.787043	91.3189	-5.45208	3.47963	0
79	0.288343	0.716445	0.772292	92.0912	-5.45208	3.47963	0
80	0.281179	0.703551	0.757658	92.8489	-5.45208	3.47963	0
81	0.274143	0.690732	0.743146	93.592	-5.45208	3.47963	0
82	0.267236	0.677997	0.728763	94.3208	-5.45208	3.47963	0
83	0.260456	0.665352	0.714514	95.0353	-5.45208	3.47963	0
84	0.253803	0.652803	0.700405	95.7357	-5.45208	3.47963	0
85	0.247275	0.640356	0.68644	96.4221	-5.45208	3.47963	0
86	0.240871	0.628016	0.672624	97.0948	-5.45208	3.47963	0
87	0.234591	0.615789	0.65896	97.7537	-5.45208	3.47963	0
88	0.228433	0.603678	0.645453	98.3992	-5.45208	3.47963	0
89	0.222396	0.59169	0.632105	99.0313	-5.45208	3.47963	0
90	0.216479	0.579826	0.618919	99.6502	-5.45208	3.47963	0
91	0.210681	0.568091	0.605899	100.256	-5.45208	3.47963	0
92	0.205	0.556488	0.593046	100.849	-5.45208	3.47963	0
93	0.199435	0.54502	0.580363	101.43	-5.45208	3.47963	0
94	0.193985	0.53369	0.567851	101.997	-5.45208	3.47963	0
95	0.188648	0.522499	0.555512	102.553	-5.45208	3.47963	0
96	0.183423	0.511451	0.543347	103.096	-5.45208	3.47963	0
97	0.178309	0.500546	0.531357	103.628	-5.45208	3.47963	0
98	0.173303	0.489787	0.519544	104.147	-5.45208	3.47963	0
99	0.168405	0.479176	0.507907	104.655	-5.45208	3.47963	0
100	0.163613	0.468712	0.496448	105.151	-5.45208	3.47963	0
101	0.158926	0.458397	0.485166	105.637	-5.45208	3.47963	0
102	0.154342	0.448233	0.474061	106.111	-5.45208	3.47963	0
103	0.14986	0.438218	0.463134	106.574	-5.45208	3.47963	0
104	0.145478	0.428355	0.452385	107.026	-5.45208	3.47963	0
105	0.141194	0.418644	0.441813	107.468	-5.45208	3.47963	0
106	0.137008	0.409083	0.431417	107.899	-5.45208	3.47963	0
107	0.132917	0.399675	0.421197	108.321	-5.45208	3.47963	0
108	0.12892	0.390417	0.411152	108.732	-5.45208	3.47963	0
109	0.125016	0.381311	0.401282	109.133	-5.45208	3.47963	0
110	0.121203	0.372355	0.391585	109.525	-5.45208	3.47963	0
111	0.117479	0.36355	0.38206	109.907	-5.45208	3.47963	0
112	0.113844	0.354894	0.372707	110.279	-5.45208	3.47963	0
113	0.110295	0.346388	0.363524	110.643	-5.45208	3.47963	0
114	0.106831	0.338029	0.354509	110.997	-5.45208	3.47963	0
115	0.103451	0.329818	0.345662	111.343	-5.45208	3.47963	0
116	0.100153	0.321754	0.336981	111.68	-5.45208	3.47963	0
117	0.0969352	0.313834	0.328464	112.009	-5.45208	3.47963	0
118	0.0937968	0.30606	0.32011	112.329	-5.45208	3.47963	0
119	0.0907362	0.298428	0.311917	112.641	-5.45208	3.47963	0
120	0.087752	0.290938	0.303884	112.944	-5.45208	3.47963	0
121	0.0848426	0.28359	0.296009	113.24	-5.45208	3.47963	0
122	0.0820067	0.27638	0.28829	113.529	-5.45208	3.47963	0
123	0.0792429	0.269309	0.280726	113.81	-5.45208	3.47963	0
124	0.0765498	0.262375	0.273314	114.083	-5.45208	3.47963	0
125	0.073926	0.255576	0.266053	114.349	-5.45208	3.47963	0
126	0.0713703	0.248911	0.258941	114.608	-5.45208	3.47963	0
127	0.0688812	0.242378	0.251976	114.86	-5.45208	3.47963	0
128	0.0664574	0.235976	0.245156	115.105	-5.45208	3.47963	0
129	0.0640976	0.229704	0.238479	115.343	-5.45208	3.47963	0
130	0.0618006	0.223559	0.231944	115.575	-5.45208	3.47963	0
131	0.059565	0.21754	0.225548	115.801	-5.45208	3.47963	0
132	0.0573896	0.211646	0.219289	116.02	-5.45208	3.47963	0
133	0.0552731	0.205875	0.213166	116.233	-5.45208	3.47963	0
134	0.0532144	0.200225	0.207176	116.441	-5.45208	3.47963	0
135	0.0512121	0.194695	0.201318	116.642	-5.45208	3.47963	0
136	0.0492652	0.189283	0.195589	116.837	-5.45208	3.47963	0
137	0.0473724	0.183987	0.189987	117.027	-5.45208	3.47963	0
138	0.0455325	0.178805	0.184512	117.212	-5.45208	3.47963	0
139	0.0437444	0.173737	0.179159	117.391	-5.45208	3.47963	0
140	0.0420071	0.16878	0.173929	117.565	-5.45208	3.47963	0
141	0.0403193	0.163933	0.168818	117.734	-5.45208	3.47963	0
142	0.0386799	0.159193	0.163825	117.898	-5.45208	3.47963	0
143	0.037088	0.15456	0.158947	118.057	-5.45208	3.47963	0
144	0.0355424	0.150031	0.154184	118.211	-5.45208	3.47963	0
145	0.0340421	0.145605	0.149532	118.36	-5.45208	3.47963	0
146	0.032586	0.141281	0.14499	118.505	-5.45208	3.47963	0
147	0.0311732	0.137056	0.140557	118.646	-5.45208	3.47963	0
148	0.0298027	0.132929	0.136229	118.782	-5.45208	3.47963	0
149	0.0284734	0.128898	0.132006	118.914	-5.45208	3.47963	0
150	0.0271844	0.124962	0.127885	119.042	-5.45208	3.47963	0
151	0.0259348	0.121119	0.123865	119.166	-5.45208	3.47963	0
152	0.0247236	0.117368	0.119944	119.286	-5.45208	3.47963	0
153	0.0235499	0.113706	0.116119	119.402	-5.45208	3.47963	0
154	0.0224128	0.110133	0.11239	119.514	-5.45208	3.47963	0
155	0.0213115	0.106646	0.108754	119.623	-5.45208	3.47963	0
156	0.0202451	0.103244	0.10521	119.728	-5.45208	3.47963	0
157	0.0192126	0.0999256	0.101756	119.83	-5.45208	3.47963	0
158	0.0182134	0.0966893	0.0983898	119.928	-5.45208	3.47963	0
159	0.0172465	0.0935335	0.0951102	120.024	-5.45208	3.47963	0
160	0.0163111	0.0904565	0.0919154	120.115	-5.45208	3.47963	0
161	0.0154066	0.0874571	0.0888037	120.204	-5.45208	3.47963	0
162	0.014532	0.0845336	0.0857735	120.29	-5.45208	3.47963	0
163	0.0136867	0.0816846	0.0828233	120.373	-5.45208	3.47963	0
164	0.0128698	0.0789086	0.0799512	120.453	-5.45208	3.47963	0
165	0.0120807	0.0762043	0.0771559	120.53	-5.45208	3.47963	0
166	0.0113187	0.0735702	0.0744358	120.604	-5.45208	3.47963	0
167	0.010583	0.0710049	0.0717893	120.676	-5.45208	3.47963	0
168	0.00987293	0.0685071	0.0692148	120.745	-5.45208	3.47963	0
169	0.00918786	0.0660753	0.066711	120.812	-5.45208	3.47963	0
170	0.00852711	0.0637082	0.0642763	120.876	-5.45208	3.47963	0
171	0.00789002	0.0614045	0.0619094	120.938	-5.45208	3.47963	0
172	0.00727598	0.0591629	0.0596087	120.998	-5.45208	3.47963	0
173	0.00668435	0.0569821	0.0573729	121.055	-5.45208	3.47963	0
174	0.00611453	0.0548609	0.0552006	121.11	-5.45208	3.47963	0
175	0.00556592	0.0527978	0.0530904	121.164	-5.45208	3.47963	0
176	0.00503794	0.0507918	0.051041	121.215	-5.45208	3.47963	0
177	0.00453002	0.0488416	0.0490512	121.264	-5.45208	3.47963	0
178	0.00404161	0.046946	0.0471196	121.311	-5.45208	3.47963	0
179	0.00357215	0.0451037	0.045245	121.356	-5.45208	3.47963	0
180	0.00312111	0.0433137	0.043426	121.399	-5.45208	3.47963	0
181	0.00268797	0.0415748	0.0416616	121.441	-5.45208	3.47963	0
182	0.00227223	0.0398858	0.0399505	121.481	-5.45208	3.47963	0
183	0.00187337	0.0382457	0.0382916	121.519	-5.45208	3.47963	0
184	0.00149091	0.0366533	0.0366836	121.556	-5.45208	3.47963	0
185	0.00112438	0.0351076	0.0351256	121.591	-5.45208	3.47963	0
186	0.000773301	0.0336074	0.0336163	121.625	-5.45208	3.47963	0
187	0.000437227	0.0321518	0.0321548	121.657	-5.45208	3.47963	0
188	0.000115709	0.0307398	0.03074	121.688	-5.45208	3.47963	0
189	-0.000191689	0.0293702	0.0293708	121.717	-5.45208	3.47963	0
190	-0.000485391	0.0280422	0.0280464	121.745	-5.45208	3.47963	0
191	-0.000765813	0.0267547	0.0267656	121.772	-5.45208	3.47963	0
192	-0.00103336	0.0255067	0.0255277	121.797	-5.45208	3.47963	0
193	-0.00128843	0.0242975	0.0243316	121.822	-5.45208	3.47963	0
194	-0.0015314	0.0231259	0.0231765	121.845	-5.45208	3.47963	0
195	-0.00176266	0.0219911	0.0220617	121.867	-5.45208	3.47963	0
196	-0.00198257	0.0208923	0.0209861	121.888	-5.45208	3.47963	0
197	-0.00219149	0.0198285	0.0199492	121.908	-5.45208	3.47963	0
198	-0.00238978	0.0187988	0.0189501	121.927	-5.45208	3.47963	0
199	-0.00257777	0.0178025	0.0179882	121.945	-5.45208	3.47963	0
200	-0.00275579	0.0168387	0.0170627	121.962	-5.45208	3.47963	0
201	-0.00292418	0.0159066	0.0161731	121.978	-5.45208	3.47963	0
202	-0.00308324	0.0150054	0.0153189	121.993	-5.45208	3.47963	0
203	-0.0032333	0.0141342	0.0144994	122.008	-5.45208	3.47963	0
204	-0.00337464	0.0132925	0.0137142	122.022	-5.45208	3.47963	0
205	-0.00350757	0.0124793	0.0129629	122.035	-5.45208	3.47963	0
206	-0.00363236	0.0116939	0.0122451	122.047	-5.45208	3.47963	0
207	-0.0037493	0.0109357	0.0115606	122.058	-5.45208	3.47963	0
208	-0.00385866	0.010204	0.0109092	122.069	-5.45208	3.47963	0
209	-0.00396069	0.00949789	0.0102906	122.08	-5.45208	3.47963	0
210	-0.00405567	0.00881688	0.00970494	122.089	-5.45208	3.47963	0
211	-0.00414384	0.00816024	0.0091521	122.098	-5.45208	3.47963	0
212	-0.00422544	0.00752733	0.00863221	122.107	-5.45208	3.47963	0
213	-0.00430072	0.0069175	0.00814543	122.115	-5.45208	3.47963	0
214	-0.00436989	0.00633014	0.00769198	122.123	-5.45208	3.47963	0
215	-0.00443319	0.00576462	0.00727215	122.13	-5.45208	3.47963	0
216	-0.00449084	0.00522036	0.0068862	122.137	-5.45208	3.47963	0
217	-0.00454304	0.00469675	0.00653443	122.144	-5.45208	3.47963	0
218	-0.00459001	0.00419324	0.00621703	122.15	-5.45208	3.47963	0
219	-0.00463194	0.00370924	0.00593409	122.156	-5.45208	3.47963	0
220	-0.00466904	0.00324423	0.0056855	122.161	-5.45208	3.47963	0
221	-0.00470148	0.00279765	0.0054709	122.167	-5.45208	3.47963	0
222	-0.00472946	0.00236898	0.0052896	122.172	-5.45208	3.47963	0
223	-0.00475315	0.00195771	0.00514053	122.177	-5.45208	3.47963	0
224	-0.00477272	0.00156334	0.00502224	122.182	-5.45208	3.47963	0
225	-0.00478836	0.00118537	0.00493289	122.187	-5.45208	3.47963	0
226	-0.00480021	0.000823317	0.0048703	122.192	-5.45208	3.47963	0
227	-0.00480844	0.000476722	0.00483202	122.197	-5.45208	3.47963	0
228	-0.00481321	0.000145122	0.0048154	122.202	-5.45208	3.47963	0
229	-0.00481466	-0.000171931	0.00481773	122.207	-5.45208	3.47963	0
230	-0.00481294	-0.000474875	0.00483631	122.211	-5.45208	3.47963	0
231	-0.00480819	-0.000764138	0.00486853	122.216	-5.45208	3.47963	0
232	-0.00480055	-0.00104014	0.00491194	122.221	-5.45208	3.47963	0
233	-0.00479015	-0.00130328	0.00496428	122.226	-5.45208	3.47963	0
234	-0.00477712	-0.00155396	0.00502351	122.231	-5.45208	3.47963	0
235	-0.00476158	-0.00179257	0.00508782	122.236	-5.45208	3.47963	0
236	-0.00474365	-0.00201949	0.00515564	122.241	-5.45208	3.47963	0
237	-0.00472346	-0.00223509	0.00522558	122.247	-5.45208	3.47963	0
238	-0.00470111	-0.00243973	0.00529648	122.252	-5.45208	3.47963	0
239	-0.00467671	-0.00263376	0.00536734	122.257	-5.45208	3.47963	0
240	-0.00465037	-0.00281752	0.00543731	122.263	-5.45208	3.47963	0
241	-0.0046222	-0.00299135	0.00550571	122.268	-5.45208	3.47963	0
242	-0.00459228	-0.00315558	0.00557196	122.274	-5.45208	3.47963	0
243	-0.00456073	-0.00331052	0.00563558	122.28	-5.45208	3.47963	0
244	-0.00452762	-0.00345648	0.0056962	122.285	-5.45208	3.47963	0
245	-0.00449306	-0.00359377	0.0057535	122.291	-5.45208	3.47963	0
246	-0.00445712	-0.00372268	0.00580726	122.297	-5.45208	3.47963	0
247	-0.00441989	-0.0038435	0.0058573	122.303	-5.45208	3.47963	0
248	-0.00438146	-0.0039565	0.00590348	122.309	-5.45208	3.47963	0
249	-0.00434189	-0.00406196	0.00594571	122.314	-5.45208	3.47963	0
250	-0.00430127	-0.00416014	0.00598395	122.32	-5.45208	3.47963	0
251	-0.00425967	-0.0042513	0.00601817	122.326	-5.45208	3.47963	0
252	-0.00421716	-0.0043357	0.00604836	122.333	-5.45208	3.47963	0
253	-0.0041738	-0.00441357	0.00607456	122.339	-5.45208	3.47963	0
254	-0.00412967	-0.00448516	0.00609678	122.345	-5.45208	3.47963	0
255	-0.00408481	-0.00455069	0.0061151	122.351	-5.45208	3.47963	0
256	-0.00403931	-0.00461039	0.00612958	122.357	-5.45208	3.47963	0
257	-0.0039932	-0.00466448	0.00614028	122.363	-5.45208	3.47963	0
258	-0.00394656	-0.00471318	0.0061473	122.369	-5.45208	3.47963	0
259	-0.00389943	-0.00475668	0.00615073	122.375	-5.45208	3.47963	0
260	-0.00385186	-0.00479519	0.00615067	122.382	-5.45208	3.47963	0
261	-0.00380391	-0.00482891	0.0061472	122.388	-5.45208	3.47963	0
262	-0.00375562	-0.00485803	0.00614045	122.394	-5.45208	3.47963	0
263	-0.00370704	-0.00488272	0.0061305	122.4	-5.45208	3.47963	0
264	-0.00365821	-0.00490317	0.00611749	122.406	-5.45208	3.47963	0
265	-0.00360918	-0.00491956	0.0061015	122.412	-5.45208	3.47963	0
266	-0.00355998	-0.00493205	0.00608265	122.418	-5.45208	3.47963	0
267	-0.00351066	-0.00494081	0.00606105	122.424	-5.45208	3.47963	0
268	-0.00346126	-0.00494599	0.00603681	122.43	-5.45208	3.47963	0
269	-0.0034118	-0.00494775	0.00601004	122.436	-5.45208	3.47963	0
270	-0.00336232	-0.00494624	0.00598084	122.442	-5.45208	3.47963	0
271	-0.00331286	-0.00494161	0.00594933	122.448	-5.45208	3.47963	0
272	-0.00326344	-0.00493399	0.0059156	122.454	-5.45208	3.47963	0
273	-0.0032141	-0.00492353	0.00587976	122.46	-5.45208	3.47963	0
274	-0.00316486	-0.00491035	0.00584191	122.466	-5.45208	3.47963	0
275	-0.00311576	-0.00489458	0.00580215	122.472	-5.45208	3.47963	0
276	-0.00306682	-0.00487635	0.00576057	122.477	-5.45208	3.47963	0
277	-0.00301805	-0.00485579	0.00571728	122.483	-5.45208	3.47963	0
278	-0.00296949	-0.00483299	0.00567236	122.489	-5.45208	3.47963	0
279	-0.00292116	-0.00480809	0.00562591	122.495	-5.45208	3.47963	0
280	-0.00287308	-0.00478118	0.00557802	122.5	-5.45208	3.47963	0
281	-0.00282527	-0.00475237	0.00552876	122.506	-5.45208	3.47963	0
282	-0.00277775	-0.00472177	0.00547823	122.511	-5.45208	3.47963	0
283	-0.00273053	-0.00468948	0.00542651	122.517	-5.45208	3.47963	0
284	-0.00268363	-0.00465558	0.00537367	122.522	-5.45208	3.47963	0
285	-0.00263708	-0.00462018	0.0053198	122.527	-5.45208	3.47963	0
286	-0.00259088	-0.00458336	0.00526496	122.532	-5.45208	3.47963	0
287	-0.00254504	-0.00454521	0.00520924	122.538	-5.45208	3.47963	0
288	-0.00249959	-0.00450581	0.0051527	122.543	-5.45208	3.47963	0
289	-0.00245453	-0.00446524	0.0050954	122.548	-5.45208	3.47963	0
290	-0.00240988	-0.00442358	0.00503742	122.553	-5.45208	3.47963	0
291	-0.00236565	-0.00438091	0.00497882	122.558	-5.45208	3.47963	0
292	-0.00232184	-0.0043373	0.00491966	122.563	-5.45208	3.47963	0
293	-0.00227846	-0.00429281	0.00486	122.568	-5.45208	3.47963	0
294	-0.00223554	-0.00424751	0.0047999	122.573	-5.45208	3.47963	0
295	-0.00219306	-0.00420148	0.0047394	122.577	-5.45208	3.47963	0
296	-0.00215105	-0.00415477	0.00467858	122.582	-5.45208	3.47963	0
297	-0.0021095	-0.00410744	0.00461747	122.587	-5.45208	3.47963	0
298	-0.00206842	-0.00405954	0.00455613	122.591	-5.45208	3.47963	0
299	-0.00202783	-0.00401115	0.0044946	122.596	-5.45208	3.47963	0
300	-0.00198772	-0.0039623	0.00443293	122.6	-5.45208	3.47963	0
301	-0.00194809	-0.00391305	0.00437116	122.604	-5.45208	3.47963	0
302	-0.00190896	-0.00386346	0.00430934	122.609	-5.45208	3.47963	0
303	-0.00187033	-0.00381356	0.00424751	122.613	-5.45208	3.47963	0
304	-0.00183219	-0.0037634	0.0041857	122.617	-5.45208	3.47963	0
305	-0.00179456	-0.00371303	0.00412395	122.621	-5.45208	3.47963	0
306	-0.00175743	-0.00366248	0.00406231	122.625	-5.45208	3.47963	0
307	-0.0017208	-0.00361181	0.00400079	122.629	-5.45208	3.47963	0
308	-0.00168469	-0.00356104	0.00393944	122.633	-5.45208	3.47963	0
309	-0.00164908	-0.00351022	0.00387828	122.637	-5.45208	3.47963	0
310	-0.00161397	-0.00345937	0.00381735	122.641	-5.45208	3.47963	0
311	-0.00157938	-0.00340854	0.00375667	122.645	-5.45208	3.47963	0
312	-0.00154529	-0.00335775	0.00369627	122.648	-5.45208	3.47963	0
313	-0.00151172	-0.00330704	0.00363618	122.652	-5.45208	3.47963	0
314	-0.00147865	-0.00325643	0.00357642	122.656	-5.45208	3.47963	0
315	-0.00144608	-0.00320596	0.00351701	122.659	-5.45208	3.47963	0
316	-0.00141402	-0.00315565	0.00345797	122.663	-5.45208	3.47963	0
317	-0.00138247	-0.00310552	0.00339933	122.666	-5.45208	3.47963	0
318	-0.00135141	-0.0030556	0.00334111	122.669	-5.45208	3.47963	0
319	-0.00132085	-0.00300592	0.00328332	122.673	-5.45208	3.47963	0
320	-0.0012908	-0.00295649	0.00322598	122.676	-5.45208	3.47963	0
321	-0.00126123	-0.00290733	0.00316911	122.679	-5.45208	3.47963	0
322	-0.00123216	-0.00285847	0.00311272	122.682	-5.45208	3.47963	0
323	-0.00120357	-0.00280992	0.00305683	122.685	-5.45208	3.47963	0
324	-0.00117547	-0.0027617	0.00300145	122.688	-5.45208	3.47963	0
325	-0.00114786	-0.00271383	0.0029466	122.691	-5.45208	3.47963	0
326	-0.00112072	-0.00266632	0.00289228	122.694	-5.45208	3.47963	0
327	-0.00109405	-0.00261919	0.0028385	122.697	-5.45208	3.47963	0
