
Current theta : [ -3.21569 , 2.55969 ] 


t	x[0]	x[1]	P	theta[0]	theta[1]	theta[2]
0	0.999	0.139597	1.00871	1.00871	-3.21569	2.55969	0
1	0.997604	0.178136	1.01338	2.02209	-3.21569	2.55969	0
2	0.995823	0.215624	1.0189	3.04099	-3.21569	2.55969	0
3	0.993666	0.252067	1.02514	4.06613	-3.21569	2.55969	0
4	0.991146	0.287473	1.03199	5.09812	-3.21569	2.55969	0
5	0.988271	0.321848	1.03936	6.13748	-3.21569	2.55969	0
6	0.985053	0.355197	1.04714	7.18462	-3.21569	2.55969	0
7	0.981501	0.387526	1.05523	8.23985	-3.21569	2.55969	0
8	0.977625	0.418842	1.06357	9.30342	-3.21569	2.55969	0
9	0.973437	0.449149	1.07206	10.3755	-3.21569	2.55969	0
10	0.968945	0.478454	1.08064	11.4561	-3.21569	2.55969	0
11	0.964161	0.506762	1.08923	12.5453	-3.21569	2.55969	0
12	0.959093	0.53408	1.09777	13.6431	-3.21569	2.55969	0
13	0.953752	0.560413	1.10621	14.7493	-3.21569	2.55969	0
14	0.948148	0.585769	1.1145	15.8638	-3.21569	2.55969	0
15	0.942291	0.610155	1.12259	16.9864	-3.21569	2.55969	0
16	0.936189	0.633577	1.13043	18.1168	-3.21569	2.55969	0
17	0.929853	0.656043	1.13799	19.2548	-3.21569	2.55969	0
18	0.923293	0.677562	1.14523	20.4001	-3.21569	2.55969	0
19	0.916517	0.698142	1.15213	21.5522	-3.21569	2.55969	0
20	0.909536	0.717793	1.15866	22.7109	-3.21569	2.55969	0
21	0.902358	0.736523	1.16478	23.8756	-3.21569	2.55969	0
22	0.894993	0.754342	1.17049	25.0461	-3.21569	2.55969	0
23	0.887449	0.771263	1.17576	26.2219	-3.21569	2.55969	0
24	0.879737	0.787295	1.18058	27.4025	-3.21569	2.55969	0
25	0.871864	0.802449	1.18494	28.5874	-3.21569	2.55969	0
26	0.863839	0.81674	1.18882	29.7762	-3.21569	2.55969	0
27	0.855672	0.830178	1.19221	30.9684	-3.21569	2.55969	0
28	0.84737	0.842777	1.19512	32.1635	-3.21569	2.55969	0
29	0.838942	0.85455	1.19753	33.3611	-3.21569	2.55969	0
30	0.830397	0.865513	1.19945	34.5605	-3.21569	2.55969	0
31	0.821742	0.875678	1.20086	35.7614	-3.21569	2.55969	0
32	0.812985	0.885062	1.20178	36.9632	-3.21569	2.55969	0
33	0.804134	0.893679	1.2022	38.1654	-3.21569	2.55969	0
34	0.795197	0.901546	1.20213	39.3675	-3.21569	2.55969	0
35	0.786182	0.908678	1.20157	40.5691	-3.21569	2.55969	0
36	0.777095	0.915091	1.20053	41.7696	-3.21569	2.55969	0
37	0.767944	0.920802	1.19901	42.9686	-3.21569	2.55969	0
38	0.758736	0.925829	1.19701	44.1656	-3.21569	2.55969	0
39	0.749478	0.930188	1.19456	45.3602	-3.21569	2.55969	0
40	0.740176	0.933897	1.19165	46.5518	-3.21569	2.55969	0
41	0.730837	0.936973	1.18829	47.7401	-3.21569	2.55969	0
42	0.721467	0.939434	1.18451	48.9246	-3.21569	2.55969	0
43	0.712073	0.941298	1.18029	50.1049	-3.21569	2.55969	0
44	0.70266	0.942583	1.17567	51.2806	-3.21569	2.55969	0
45	0.693234	0.943305	1.17064	52.4512	-3.21569	2.55969	0
46	0.683801	0.943485	1.16522	53.6165	-3.21569	2.55969	0
47	0.674366	0.943138	1.15943	54.7759	-3.21569	2.55969	0
48	0.664935	0.942284	1.15327	55.9292	-3.21569	2.55969	0
49	0.655512	0.940939	1.14676	57.0759	-3.21569	2.55969	0
50	0.646103	0.939122	1.13991	58.2158	-3.21569	2.55969	0
51	0.636711	0.93685	1.13274	59.3486	-3.21569	2.55969	0
52	0.627343	0.934141	1.12525	60.4738	-3.21569	2.55969	0
53	0.618002	0.931012	1.11746	61.5913	-3.21569	2.55969	0
54	0.608691	0.92748	1.10938	62.7006	-3.21569	2.55969	0
55	0.599417	0.923561	1.10103	63.8017	-3.21569	2.55969	0
56	0.590181	0.919273	1.09242	64.8941	-3.21569	2.55969	0
57	0.580988	0.914632	1.08356	65.9777	-3.21569	2.55969	0
58	0.571842	0.909654	1.07446	67.0521	-3.21569	2.55969	0
59	0.562745	0.904355	1.06515	68.1173	-3.21569	2.55969	0
60	0.553702	0.89875	1.05562	69.1729	-3.21569	2.55969	0
61	0.544714	0.892855	1.0459	70.2188	-3.21569	2.55969	0
62	0.535786	0.886685	1.03599	71.2548	-3.21569	2.55969	0
63	0.526919	0.880254	1.02591	72.2807	-3.21569	2.55969	0
64	0.518116	0.873577	1.01567	73.2964	-3.21569	2.55969	0
65	0.509381	0.866668	1.00528	74.3016	-3.21569	2.55969	0
66	0.500714	0.85954	0.994748	75.2964	-3.21569	2.55969	0
67	0.492119	0.852206	0.984092	76.2805	-3.21569	2.55969	0
68	0.483597	0.844681	0.97332	77.2538	-3.21569	2.55969	0
69	0.47515	0.836975	0.962442	78.2162	-3.21569	2.55969	0
70	0.46678	0.829102	0.951469	79.1677	-3.21569	2.55969	0
71	0.458489	0.821073	0.940411	80.1081	-3.21569	2.55969	0
72	0.450278	0.8129	0.929277	81.0374	-3.21569	2.55969	0
73	0.442149	0.804593	0.918078	81.9555	-3.21569	2.55969	0
74	0.434103	0.796165	0.906821	82.8623	-3.21569	2.55969	0
75	0.426142	0.787625	0.895516	83.7578	-3.21569	2.55969	0
76	0.418265	0.778983	0.884172	84.642	-3.21569	2.55969	0
77	0.410476	0.770249	0.872797	85.5148	-3.21569	2.55969	0
78	0.402773	0.761433	0.861398	86.3762	-3.21569	2.55969	0
79	0.395159	0.752543	0.849983	87.2262	-3.21569	2.55969	0
80	0.387633	0.743589	0.838561	88.0647	-3.21569	2.55969	0
81	0.380197	0.734578	0.827137	88.8919	-3.21569	2.55969	0
82	0.372852	0.725519	0.815718	89.7076	-3.21569	2.55969	0
83	0.365596	0.71642	0.804312	90.5119	-3.21569	2.55969	0
84	0.358432	0.707287	0.792925	91.3048	-3.21569	2.55969	0
85	0.351359	0.698129	0.781561	92.0864	-3.21569	2.55969	0
86	0.344378	0.688952	0.770228	92.8566	-3.21569	2.55969	0
87	0.337489	0.679763	0.758931	93.6155	-3.21569	2.55969	0
88	0.330691	0.670567	0.747674	94.3632	-3.21569	2.55969	0
89	0.323985	0.661371	0.736463	95.0997	-3.21569	2.55969	0
90	0.317372	0.652181	0.725303	95.825	-3.21569	2.55969	0
91	0.31085	0.643001	0.714198	96.5392	-3.21569	2.55969	0
92	0.30442	0.633838	0.703152	97.2423	-3.21569	2.55969	0
93	0.298081	0.624696	0.692169	97.9345	-3.21569	2.55969	0
94	0.291834	0.61558	0.681254	98.6157	-3.21569	2.55969	0
95	0.285679	0.606495	0.670409	99.2861	-3.21569	2.55969	0
96	0.279614	0.597444	0.659639	99.9458	-3.21569	2.55969	0
97	0.273639	0.588431	0.648945	100.595	-3.21569	2.55969	0
98	0.267755	0.579462	0.638332	101.233	-3.21569	2.55969	0
99	0.26196	0.570538	0.627803	101.861	-3.21569	2.55969	0
100	0.256255	0.561663	0.617359	102.478	-3.21569	2.55969	0
101	0.250638	0.552842	0.607004	103.085	-3.21569	2.55969	0
102	0.24511	0.544076	0.596739	103.682	-3.21569	2.55969	0
103	0.239669	0.535368	0.586567	104.269	-3.21569	2.55969	0
104	0.234315	0.526722	0.576489	104.845	-3.21569	2.55969	0
105	0.229048	0.518139	0.566508	105.412	-3.21569	2.55969	0
106	0.223867	0.509623	0.556626	105.968	-3.21569	2.55969	0
107	0.218771	0.501175	0.546843	106.515	-3.21569	2.55969	0
108	0.213759	0.492797	0.537161	107.052	-3.21569	2.55969	0
109	0.208831	0.484492	0.527582	107.58	-3.21569	2.55969	0
110	0.203986	0.47626	0.518106	108.098	-3.21569	2.55969	0
111	0.199223	0.468105	0.508736	108.607	-3.21569	2.55969	0
112	0.194542	0.460026	0.49947	109.106	-3.21569	2.55969	0
113	0.189942	0.452026	0.490312	109.596	-3.21569	2.55969	0
114	0.185422	0.444106	0.48126	110.078	-3.21569	2.55969	0
115	0.180981	0.436266	0.472316	110.55	-3.21569	2.55969	0
116	0.176618	0.428509	0.46348	111.013	-3.21569	2.55969	0
117	0.172333	0.420835	0.454753	111.468	-3.21569	2.55969	0
118	0.168125	0.413244	0.446136	111.914	-3.21569	2.55969	0
119	0.163992	0.405739	0.437627	112.352	-3.21569	2.55969	0
120	0.159935	0.398318	0.429228	112.781	-3.21569	2.55969	0
121	0.155952	0.390984	0.420938	113.202	-3.21569	2.55969	0
122	0.152042	0.383735	0.412758	113.615	-3.21569	2.55969	0
123	0.148204	0.376574	0.404688	114.02	-3.21569	2.55969	0
124	0.144439	0.3695	0.396727	114.416	-3.21569	2.55969	0
125	0.140744	0.362513	0.388876	114.805	-3.21569	2.55969	0
126	0.137119	0.355613	0.381133	115.186	-3.21569	2.55969	0
127	0.133562	0.348802	0.373499	115.56	-3.21569	2.55969	0
128	0.130074	0.342079	0.365974	115.926	-3.21569	2.55969	0
129	0.126654	0.335443	0.358557	116.284	-3.21569	2.55969	0
130	0.123299	0.328896	0.351248	116.636	-3.21569	2.55969	0
131	0.12001	0.322436	0.344045	116.98	-3.21569	2.55969	0
132	0.116786	0.316064	0.33695	117.317	-3.21569	2.55969	0
133	0.113625	0.309779	0.32996	117.647	-3.21569	2.55969	0
134	0.110527	0.303582	0.323077	117.97	-3.21569	2.55969	0
135	0.107492	0.297472	0.316298	118.286	-3.21569	2.55969	0
136	0.104517	0.291449	0.309623	118.596	-3.21569	2.55969	0
137	0.101602	0.285512	0.303052	118.899	-3.21569	2.55969	0
138	0.0987473	0.279662	0.296583	119.195	-3.21569	2.55969	0
139	0.0959507	0.273897	0.290217	119.485	-3.21569	2.55969	0
140	0.0932117	0.268217	0.283952	119.769	-3.21569	2.55969	0
141	0.0905295	0.262622	0.277788	120.047	-3.21569	2.55969	0
142	0.0879033	0.257112	0.271723	120.319	-3.21569	2.55969	0
143	0.0853322	0.251685	0.265757	120.585	-3.21569	2.55969	0
144	0.0828154	0.246341	0.259889	120.844	-3.21569	2.55969	0
145	0.0803519	0.241081	0.254119	121.099	-3.21569	2.55969	0
146	0.0779411	0.235902	0.248444	121.347	-3.21569	2.55969	0
147	0.0755821	0.230804	0.242865	121.59	-3.21569	2.55969	0
148	0.0732741	0.225788	0.23738	121.827	-3.21569	2.55969	0
149	0.0710162	0.220852	0.231989	122.059	-3.21569	2.55969	0
150	0.0688077	0.215995	0.22669	122.286	-3.21569	2.55969	0
151	0.0666477	0.211217	0.221483	122.507	-3.21569	2.55969	0
152	0.0645355	0.206518	0.216366	122.724	-3.21569	2.55969	0
153	0.0624704	0.201896	0.211339	122.935	-3.21569	2.55969	0
154	0.0604514	0.19735	0.206401	123.142	-3.21569	2.55969	0
155	0.0584779	0.192881	0.201551	123.343	-3.21569	2.55969	0
156	0.0565491	0.188487	0.196787	123.54	-3.21569	2.55969	0
157	0.0546642	0.184167	0.192109	123.732	-3.21569	2.55969	0
158	0.0528226	0.179921	0.187515	123.92	-3.21569	2.55969	0
159	0.0510234	0.175748	0.183005	124.103	-3.21569	2.55969	0
160	0.0492659	0.171648	0.178578	124.281	-3.21569	2.55969	0
161	0.0475494	0.167619	0.174233	124.455	-3.21569	2.55969	0
162	0.0458732	0.16366	0.169968	124.625	-3.21569	2.55969	0
163	0.0442366	0.159772	0.165783	124.791	-3.21569	2.55969	0
164	0.0426389	0.155953	0.161677	124.953	-3.21569	2.55969	0
165	0.0410794	0.152202	0.157648	125.11	-3.21569	2.55969	0
166	0.0395573	0.148518	0.153696	125.264	-3.21569	2.55969	0
167	0.0380722	0.144901	0.149819	125.414	-3.21569	2.55969	0
168	0.0366231	0.14135	0.146018	125.56	-3.21569	2.55969	0
169	0.0352096	0.137864	0.14229	125.702	-3.21569	2.55969	0
170	0.033831	0.134443	0.138634	125.841	-3.21569	2.55969	0
171	0.0324866	0.131085	0.13505	125.976	-3.21569	2.55969	0
172	0.0311757	0.12779	0.131538	126.107	-3.21569	2.55969	0
173	0.0298978	0.124556	0.128094	126.236	-3.21569	2.55969	0
174	0.0286523	0.121384	0.12472	126.36	-3.21569	2.55969	0
175	0.0274384	0.118272	0.121413	126.482	-3.21569	2.55969	0
176	0.0262557	0.115219	0.118173	126.6	-3.21569	2.55969	0
177	0.0251035	0.112226	0.114999	126.715	-3.21569	2.55969	0
178	0.0239813	0.10929	0.11189	126.827	-3.21569	2.55969	0
179	0.0228884	0.106411	0.108845	126.936	-3.21569	2.55969	0
180	0.0218242	0.103589	0.105863	127.041	-3.21569	2.55969	0
181	0.0207884	0.100822	0.102943	127.144	-3.21569	2.55969	0
182	0.0197801	0.0981095	0.100084	127.244	-3.21569	2.55969	0
183	0.018799	0.0954514	0.097285	127.342	-3.21569	2.55969	0
184	0.0178445	0.0928465	0.0945457	127.436	-3.21569	2.55969	0
185	0.0169161	0.090294	0.0918649	127.528	-3.21569	2.55969	0
186	0.0160131	0.0877932	0.0892416	127.617	-3.21569	2.55969	0
187	0.0151352	0.0853433	0.086675	127.704	-3.21569	2.55969	0
188	0.0142818	0.0829436	0.0841642	127.788	-3.21569	2.55969	0
189	0.0134523	0.0805933	0.0817083	127.87	-3.21569	2.55969	0
190	0.0126464	0.0782917	0.0793065	127.949	-3.21569	2.55969	0
191	0.0118635	0.076038	0.0769579	128.026	-3.21569	2.55969	0
192	0.0111031	0.0738315	0.0746617	128.101	-3.21569	2.55969	0
193	0.0103648	0.0716715	0.0724171	128.173	-3.21569	2.55969	0
194	0.00964807	0.0695573	0.0702232	128.244	-3.21569	2.55969	0
195	0.0089525	0.067488	0.0680792	128.312	-3.21569	2.55969	0
196	0.00827762	0.0654631	0.0659844	128.378	-3.21569	2.55969	0
197	0.00762299	0.0634819	0.0639379	128.442	-3.21569	2.55969	0
198	0.00698817	0.0615435	0.061939	128.503	-3.21569	2.55969	0
199	0.00637273	0.0596474	0.0599868	128.563	-3.21569	2.55969	0
200	0.00577626	0.0577928	0.0580807	128.622	-3.21569	2.55969	0
201	0.00519833	0.0559791	0.0562199	128.678	-3.21569	2.55969	0
202	0.00463854	0.0542056	0.0544037	128.732	-3.21569	2.55969	0
203	0.00409648	0.0524716	0.0526312	128.785	-3.21569	2.55969	0
204	0.00357177	0.0507765	0.0509019	128.836	-3.21569	2.55969	0
205	0.003064	0.0491196	0.049215	128.885	-3.21569	2.55969	0
206	0.00257281	0.0475002	0.0475698	128.932	-3.21569	2.55969	0
207	0.00209781	0.0459178	0.0459657	128.978	-3.21569	2.55969	0
208	0.00163863	0.0443717	0.044402	129.023	-3.21569	2.55969	0
209	0.00119491	0.0428613	0.042878	129.066	-3.21569	2.55969	0
210	0.000766296	0.041386	0.0413931	129.107	-3.21569	2.55969	0
211	0.000352437	0.0399451	0.0399466	129.147	-3.21569	2.55969	0
212	-4.70139e-05	0.038538	0.038538	129.186	-3.21569	2.55969	0
213	-0.000432394	0.0371642	0.0371667	129.223	-3.21569	2.55969	0
214	-0.000804036	0.035823	0.035832	129.259	-3.21569	2.55969	0
215	-0.00116227	0.0345139	0.0345335	129.293	-3.21569	2.55969	0
216	-0.00150741	0.0332364	0.0332705	129.326	-3.21569	2.55969	0
217	-0.00183977	0.0319897	0.0320426	129.358	-3.21569	2.55969	0
218	-0.00215967	0.0307734	0.0308491	129.389	-3.21569	2.55969	0
219	-0.0024674	0.0295869	0.0296896	129.419	-3.21569	2.55969	0
220	-0.00276327	0.0284297	0.0285637	129.448	-3.21569	2.55969	0
221	-0.00304757	0.0273012	0.0274708	129.475	-3.21569	2.55969	0
222	-0.00332058	0.0262009	0.0264105	129.501	-3.21569	2.55969	0
223	-0.00358259	0.0251282	0.0253824	129.527	-3.21569	2.55969	0
224	-0.00383387	0.0240827	0.024386	129.551	-3.21569	2.55969	0
225	-0.0040747	0.0230638	0.023421	129.575	-3.21569	2.55969	0
226	-0.00430534	0.0220711	0.0224871	129.597	-3.21569	2.55969	0
227	-0.00452605	0.0211039	0.0215838	129.619	-3.21569	2.55969	0
228	-0.00473709	0.0201619	0.0207109	129.639	-3.21569	2.55969	0
229	-0.0049387	0.0192445	0.0198681	129.659	-3.21569	2.55969	0
230	-0.00513115	0.0183512	0.0190551	129.678	-3.21569	2.55969	0
231	-0.00531466	0.0174817	0.0182717	129.697	-3.21569	2.55969	0
232	-0.00548948	0.0166354	0.0175177	129.714	-3.21569	2.55969	0
233	-0.00565583	0.0158118	0.0167929	129.731	-3.21569	2.55969	0
234	-0.00581395	0.0150105	0.0160971	129.747	-3.21569	2.55969	0
235	-0.00596405	0.0142311	0.0154303	129.762	-3.21569	2.55969	0
236	-0.00610637	0.0134731	0.0147923	129.777	-3.21569	2.55969	0
237	-0.0062411	0.0127361	0.014183	129.791	-3.21569	2.55969	0
238	-0.00636846	0.0120196	0.0136025	129.805	-3.21569	2.55969	0
239	-0.00648865	0.0113233	0.0130506	129.818	-3.21569	2.55969	0
240	-0.00660189	0.0106466	0.0125274	129.831	-3.21569	2.55969	0
241	-0.00670835	0.00998935	0.0120328	129.843	-3.21569	2.55969	0
242	-0.00680825	0.00935096	0.0115669	129.854	-3.21569	2.55969	0
243	-0.00690176	0.00873109	0.0111295	129.865	-3.21569	2.55969	0
244	-0.00698907	0.00812934	0.0107207	129.876	-3.21569	2.55969	0
245	-0.00707036	0.00754532	0.0103403	129.886	-3.21569	2.55969	0
246	-0.00714581	0.00697867	0.00998822	129.896	-3.21569	2.55969	0
247	-0.0072156	0.00642901	0.00966422	129.906	-3.21569	2.55969	0
248	-0.00727989	0.00589598	0.00936799	129.915	-3.21569	2.55969	0
249	-0.00733885	0.0053792	0.00909915	129.924	-3.21569	2.55969	0
250	-0.00739264	0.00487834	0.00885716	129.933	-3.21569	2.55969	0
251	-0.00744142	0.00439304	0.00864139	129.942	-3.21569	2.55969	0
252	-0.00748535	0.00392296	0.00845104	129.95	-3.21569	2.55969	0
253	-0.00752458	0.00346775	0.00828521	129.959	-3.21569	2.55969	0
254	-0.00755926	0.0030271	0.00814284	129.967	-3.21569	2.55969	0
255	-0.00758953	0.00260067	0.00802275	129.975	-3.21569	2.55969	0
256	-0.00761554	0.00218815	0.00792366	129.983	-3.21569	2.55969	0
257	-0.00763742	0.00178921	0.0078442	129.991	-3.21569	2.55969	0
258	-0.00765531	0.00140355	0.00778292	129.998	-3.21569	2.55969	0
259	-0.00766935	0.00103086	0.00773832	130.006	-3.21569	2.55969	0
260	-0.00767966	0.000670854	0.0077089	130.014	-3.21569	2.55969	0
261	-0.00768637	0.000323223	0.00769316	130.022	-3.21569	2.55969	0
262	-0.0076896	-1.23156e-05	0.00768961	130.029	-3.21569	2.55969	0
263	-0.00768948	-0.000336047	0.00769681	130.037	-3.21569	2.55969	0
264	-0.00768611	-0.000648249	0.0077134	130.045	-3.21569	2.55969	0
265	-0.00767963	-0.000949197	0.00773807	130.052	-3.21569	2.55969	0
266	-0.00767014	-0.00123916	0.00776959	130.06	-3.21569	2.55969	0
267	-0.00765775	-0.0015184	0.00780683	130.068	-3.21569	2.55969	0
268	-0.00764256	-0.00178718	0.00784874	130.076	-3.21569	2.55969	0
269	-0.00762469	-0.00204575	0.00789437	130.084	-3.21569	2.55969	0
270	-0.00760424	-0.00229436	0.00794283	130.092	-3.21569	2.55969	0
271	-0.00758129	-0.00253326	0.00799333	130.1	-3.21569	2.55969	0
272	-0.00755596	-0.00276269	0.00804518	130.108	-3.21569	2.55969	0
273	-0.00752833	-0.00298288	0.00809774	130.116	-3.21569	2.55969	0
274	-0.0074985	-0.00319407	0.00815044	130.124	-3.21569	2.55969	0
275	-0.00746656	-0.00339649	0.00820279	130.132	-3.21569	2.55969	0
276	-0.0074326	-0.00359035	0.00825434	130.14	-3.21569	2.55969	0
277	-0.00739669	-0.00377589	0.00830472	130.149	-3.21569	2.55969	0
278	-0.00735894	-0.0039533	0.00835359	130.157	-3.21569	2.55969	0
279	-0.0073194	-0.00412281	0.00840067	130.165	-3.21569	2.55969	0
280	-0.00727817	-0.00428461	0.00844569	130.174	-3.21569	2.55969	0
281	-0.00723533	-0.00443892	0.00848846	130.182	-3.21569	2.55969	0
282	-0.00719094	-0.00458593	0.0085288	130.191	-3.21569	2.55969	0
283	-0.00714508	-0.00472584	0.00856655	130.2	-3.21569	2.55969	0
284	-0.00709782	-0.00485883	0.00860159	130.208	-3.21569	2.55969	0
285	-0.00704923	-0.00498509	0.00863382	130.217	-3.21569	2.55969	0
286	-0.00699938	-0.00510482	0.00866317	130.225	-3.21569	2.55969	0
287	-0.00694833	-0.00521818	0.00868957	130.234	-3.21569	2.55969	0
288	-0.00689615	-0.00532535	0.00871299	130.243	-3.21569	2.55969	0
289	-0.0068429	-0.0054265	0.0087334	130.252	-3.21569	2.55969	0
290	-0.00678863	-0.00552182	0.00875077	130.26	-3.21569	2.55969	0
291	-0.00673342	-0.00561145	0.00876511	130.269	-3.21569	2.55969	0
292	-0.0066773	-0.00569556	0.00877643	130.278	-3.21569	2.55969	0
293	-0.00662035	-0.00577431	0.00878474	130.287	-3.21569	2.55969	0
294	-0.0065626	-0.00584786	0.00879006	130.295	-3.21569	2.55969	0
295	-0.00650412	-0.00591636	0.00879243	130.304	-3.21569	2.55969	0
296	-0.00644496	-0.00597995	0.00879189	130.313	-3.21569	2.55969	0
297	-0.00638516	-0.00603878	0.00878847	130.322	-3.21569	2.55969	0
298	-0.00632477	-0.006093	0.00878222	130.331	-3.21569	2.55969	0
299	-0.00626384	-0.00614275	0.0087732	130.339	-3.21569	2.55969	0
300	-0.00620242	-0.00618815	0.00876146	130.348	-3.21569	2.55969	0
301	-0.00614053	-0.00622935	0.00874705	130.357	-3.21569	2.55969	0
302	-0.00607824	-0.00626647	0.00873004	130.366	-3.21569	2.55969	0
303	-0.00601558	-0.00629965	0.00871049	130.374	-3.21569	2.55969	0
304	-0.00595258	-0.006329	0.00868847	130.383	-3.21569	2.55969	0
305	-0.00588929	-0.00635465	0.00866402	130.392	-3.21569	2.55969	0
306	-0.00582574	-0.00637672	0.00863724	130.4	-3.21569	2.55969	0
307	-0.00576198	-0.00639533	0.00860817	130.409	-3.21569	2.55969	0
308	-0.00569802	-0.00641058	0.00857689	130.417	-3.21569	2.55969	0
309	-0.00563392	-0.0064226	0.00854347	130.426	-3.21569	2.55969	0
310	-0.00556969	-0.00643149	0.00850796	130.435	-3.21569	2.55969	0
311	-0.00550538	-0.00643735	0.00847045	130.443	-3.21569	2.55969	0
312	-0.005441	-0.00644029	0.008431	130.451	-3.21569	2.55969	0
313	-0.0053766	-0.00644041	0.00838968	130.46	-3.21569	2.55969	0
314	-0.0053122	-0.00643782	0.00834655	130.468	-3.21569	2.55969	0
315	-0.00524782	-0.0064326	0.00830168	130.476	-3.21569	2.55969	0
316	-0.00518349	-0.00642485	0.00825514	130.485	-3.21569	2.55969	0
317	-0.00511924	-0.00641467	0.00820699	130.493	-3.21569	2.55969	0
318	-0.0050551	-0.00640214	0.00815729	130.501	-3.21569	2.55969	0
319	-0.00499107	-0.00638735	0.00810611	130.509	-3.21569	2.55969	0
320	-0.0049272	-0.00637039	0.00805352	130.517	-3.21569	2.55969	0
321	-0.0048635	-0.00635134	0.00799957	130.525	-3.21569	2.55969	0
322	-0.00479998	-0.00633029	0.00794433	130.533	-3.21569	2.55969	0
323	-0.00473668	-0.0063073	0.00788785	130.541	-3.21569	2.55969	0
324	-0.00467361	-0.00628247	0.0078302	130.549	-3.21569	2.55969	0
325	-0.00461078	-0.00625586	0.00777143	130.557	-3.21569	2.55969	0
326	-0.00454822	-0.00622755	0.00771159	130.564	-3.21569	2.55969	0
327	-0.00448595	-0.0061976	0.00765075	130.572	-3.21569	2.55969	0
328	-0.00442397	-0.0061661	0.00758896	130.58	-3.21569	2.55969	0
329	-0.00436231	-0.00613311	0.00752628	130.587	-3.21569	2.55969	0
330	-0.00430098	-0.0060987	0.00746274	130.595	-3.21569	2.55969	0
