
Current theta : [ -5.33446 , 3.43543 ] 


t	x[0]	x[1]	P	theta[0]	theta[1]	theta[2]
0	0.999	0.159909	1.01172	1.01172	-5.33446	3.43543	0
1	0.997401	0.217694	1.02088	2.0326	-5.33446	3.43543	0
2	0.995224	0.273384	1.03209	3.06469	-5.33446	3.43543	0
3	0.99249	0.327008	1.04497	4.10966	-5.33446	3.43543	0
4	0.98922	0.378593	1.05919	5.16886	-5.33446	3.43543	0
5	0.985434	0.428168	1.07443	6.24329	-5.33446	3.43543	0
6	0.981152	0.475756	1.09041	7.3337	-5.33446	3.43543	0
7	0.976395	0.521385	1.10688	8.44059	-5.33446	3.43543	0
8	0.971181	0.565079	1.12361	9.5642	-5.33446	3.43543	0
9	0.96553	0.606865	1.14041	10.7046	-5.33446	3.43543	0
10	0.959462	0.646766	1.1571	11.8617	-5.33446	3.43543	0
11	0.952994	0.68481	1.17353	13.0352	-5.33446	3.43543	0
12	0.946146	0.721022	1.18956	14.2248	-5.33446	3.43543	0
13	0.938936	0.755429	1.2051	15.4299	-5.33446	3.43543	0
14	0.931381	0.788059	1.22004	16.6499	-5.33446	3.43543	0
15	0.923501	0.818939	1.23431	17.8843	-5.33446	3.43543	0
16	0.915311	0.848099	1.24782	19.1321	-5.33446	3.43543	0
17	0.90683	0.875567	1.26054	20.3926	-5.33446	3.43543	0
18	0.898075	0.901375	1.27241	21.665	-5.33446	3.43543	0
19	0.889061	0.925553	1.28339	22.9484	-5.33446	3.43543	0
20	0.879805	0.948134	1.29345	24.2419	-5.33446	3.43543	0
21	0.870324	0.96915	1.30258	25.5444	-5.33446	3.43543	0
22	0.860633	0.988636	1.31076	26.8552	-5.33446	3.43543	0
23	0.850746	1.00662	1.31798	28.1732	-5.33446	3.43543	0
24	0.84068	1.02315	1.32423	29.4974	-5.33446	3.43543	0
25	0.830448	1.03825	1.32952	30.8269	-5.33446	3.43543	0
26	0.820066	1.05197	1.33385	32.1608	-5.33446	3.43543	0
27	0.809546	1.06433	1.33722	33.498	-5.33446	3.43543	0
28	0.798903	1.07538	1.33966	34.8376	-5.33446	3.43543	0
29	0.788149	1.08515	1.34117	36.1788	-5.33446	3.43543	0
30	0.777298	1.09368	1.34177	37.5206	-5.33446	3.43543	0
31	0.766361	1.10102	1.34147	38.8621	-5.33446	3.43543	0
32	0.755351	1.1072	1.34031	40.2024	-5.33446	3.43543	0
33	0.744279	1.11225	1.3383	41.5407	-5.33446	3.43543	0
34	0.733156	1.11623	1.33547	42.8761	-5.33446	3.43543	0
35	0.721994	1.11916	1.33184	44.208	-5.33446	3.43543	0
36	0.710802	1.12109	1.32743	45.5354	-5.33446	3.43543	0
37	0.699591	1.12205	1.32228	46.8577	-5.33446	3.43543	0
38	0.688371	1.12209	1.31641	48.1741	-5.33446	3.43543	0
39	0.67715	1.12124	1.30985	49.484	-5.33446	3.43543	0
40	0.665938	1.11955	1.30263	50.7866	-5.33446	3.43543	0
41	0.654742	1.11704	1.29478	52.0814	-5.33446	3.43543	0
42	0.643572	1.11376	1.28633	53.3677	-5.33446	3.43543	0
43	0.632434	1.10973	1.2773	54.645	-5.33446	3.43543	0
44	0.621337	1.10501	1.26772	55.9127	-5.33446	3.43543	0
45	0.610287	1.09963	1.25763	57.1703	-5.33446	3.43543	0
46	0.59929	1.09361	1.24705	58.4174	-5.33446	3.43543	0
47	0.588354	1.08699	1.236	59.6534	-5.33446	3.43543	0
48	0.577484	1.07981	1.22453	60.8779	-5.33446	3.43543	0
49	0.566686	1.0721	1.21265	62.0906	-5.33446	3.43543	0
50	0.555965	1.06388	1.20039	63.291	-5.33446	3.43543	0
51	0.545327	1.0552	1.18778	64.4788	-5.33446	3.43543	0
52	0.534775	1.04608	1.17485	65.6536	-5.33446	3.43543	0
53	0.524314	1.03655	1.16161	66.8152	-5.33446	3.43543	0
54	0.513948	1.02664	1.1481	67.9633	-5.33446	3.43543	0
55	0.503682	1.01637	1.13433	69.0976	-5.33446	3.43543	0
56	0.493518	1.00577	1.12033	70.218	-5.33446	3.43543	0
57	0.483461	0.994872	1.10612	71.3241	-5.33446	3.43543	0
58	0.473512	0.983695	1.09173	72.4158	-5.33446	3.43543	0
59	0.463675	0.972264	1.07717	73.493	-5.33446	3.43543	0
60	0.453952	0.960601	1.06246	74.5554	-5.33446	3.43543	0
61	0.444346	0.948729	1.04763	75.6031	-5.33446	3.43543	0
62	0.434859	0.936669	1.03269	76.6358	-5.33446	3.43543	0
63	0.425492	0.924441	1.01766	77.6534	-5.33446	3.43543	0
64	0.416248	0.912064	1.00256	78.656	-5.33446	3.43543	0
65	0.407127	0.899558	0.987399	79.6434	-5.33446	3.43543	0
66	0.398132	0.886939	0.972198	80.6156	-5.33446	3.43543	0
67	0.389262	0.874224	0.956971	81.5725	-5.33446	3.43543	0
68	0.38052	0.861431	0.941732	82.5143	-5.33446	3.43543	0
69	0.371906	0.848574	0.926494	83.4408	-5.33446	3.43543	0
70	0.36342	0.835668	0.911271	84.352	-5.33446	3.43543	0
71	0.355063	0.822727	0.896075	85.2481	-5.33446	3.43543	0
72	0.346836	0.809764	0.880916	86.129	-5.33446	3.43543	0
73	0.338738	0.796792	0.865806	86.9948	-5.33446	3.43543	0
74	0.33077	0.783822	0.850756	87.8456	-5.33446	3.43543	0
75	0.322932	0.770866	0.835775	88.6814	-5.33446	3.43543	0
76	0.315224	0.757935	0.820872	89.5022	-5.33446	3.43543	0
77	0.307644	0.745038	0.806056	90.3083	-5.33446	3.43543	0
78	0.300194	0.732185	0.791335	91.0996	-5.33446	3.43543	0
79	0.292872	0.719385	0.776717	91.8764	-5.33446	3.43543	0
80	0.285678	0.706646	0.762208	92.6386	-5.33446	3.43543	0
81	0.278612	0.693976	0.747815	93.3864	-5.33446	3.43543	0
82	0.271672	0.681382	0.733545	94.1199	-5.33446	3.43543	0
83	0.264858	0.668872	0.719402	94.8393	-5.33446	3.43543	0
84	0.258169	0.656451	0.705393	95.5447	-5.33446	3.43543	0
85	0.251605	0.644126	0.691522	96.2362	-5.33446	3.43543	0
86	0.245164	0.631902	0.677794	96.914	-5.33446	3.43543	0
87	0.238845	0.619784	0.664213	97.5782	-5.33446	3.43543	0
88	0.232647	0.607777	0.650782	98.229	-5.33446	3.43543	0
89	0.226569	0.595885	0.637505	98.8665	-5.33446	3.43543	0
90	0.22061	0.584113	0.624385	99.4909	-5.33446	3.43543	0
91	0.214769	0.572464	0.611425	100.102	-5.33446	3.43543	0
92	0.209044	0.560941	0.598627	100.701	-5.33446	3.43543	0
93	0.203435	0.549548	0.585993	101.287	-5.33446	3.43543	0
94	0.197939	0.538287	0.573526	101.86	-5.33446	3.43543	0
95	0.192557	0.527161	0.561228	102.422	-5.33446	3.43543	0
96	0.187285	0.516172	0.549098	102.971	-5.33446	3.43543	0
97	0.182123	0.505322	0.53714	103.508	-5.33446	3.43543	0
98	0.17707	0.494613	0.525353	104.033	-5.33446	3.43543	0
99	0.172124	0.484046	0.513738	104.547	-5.33446	3.43543	0
100	0.167283	0.473623	0.502297	105.049	-5.33446	3.43543	0
101	0.162547	0.463345	0.491029	105.54	-5.33446	3.43543	0
102	0.157914	0.453212	0.479936	106.02	-5.33446	3.43543	0
103	0.153382	0.443226	0.469016	106.489	-5.33446	3.43543	0
104	0.148949	0.433388	0.458269	106.948	-5.33446	3.43543	0
105	0.144616	0.423696	0.447696	107.395	-5.33446	3.43543	0
106	0.140379	0.414153	0.437297	107.833	-5.33446	3.43543	0
107	0.136237	0.404757	0.42707	108.26	-5.33446	3.43543	0
108	0.132189	0.395509	0.417015	108.677	-5.33446	3.43543	0
109	0.128234	0.386409	0.407132	109.084	-5.33446	3.43543	0
110	0.12437	0.377457	0.397419	109.481	-5.33446	3.43543	0
111	0.120596	0.368652	0.387875	109.869	-5.33446	3.43543	0
112	0.116909	0.359993	0.378501	110.248	-5.33446	3.43543	0
113	0.113309	0.351481	0.369293	110.617	-5.33446	3.43543	0
114	0.109794	0.343114	0.360252	110.977	-5.33446	3.43543	0
115	0.106363	0.334891	0.351376	111.329	-5.33446	3.43543	0
116	0.103014	0.326813	0.342664	111.671	-5.33446	3.43543	0
117	0.0997463	0.318877	0.334114	112.005	-5.33446	3.43543	0
118	0.0965575	0.311084	0.325725	112.331	-5.33446	3.43543	0
119	0.0934467	0.303431	0.317495	112.649	-5.33446	3.43543	0
120	0.0904123	0.295919	0.309422	112.958	-5.33446	3.43543	0
121	0.0874532	0.288545	0.301506	113.259	-5.33446	3.43543	0
122	0.0845677	0.281308	0.293745	113.553	-5.33446	3.43543	0
123	0.0817546	0.274208	0.286136	113.839	-5.33446	3.43543	0
124	0.0790126	0.267243	0.278678	114.118	-5.33446	3.43543	0
125	0.0763401	0.260411	0.27137	114.389	-5.33446	3.43543	0
126	0.073736	0.253712	0.264209	114.654	-5.33446	3.43543	0
127	0.0711989	0.247143	0.257194	114.911	-5.33446	3.43543	0
128	0.0687275	0.240704	0.250323	115.161	-5.33446	3.43543	0
129	0.0663204	0.234392	0.243594	115.405	-5.33446	3.43543	0
130	0.0639765	0.228207	0.237005	115.642	-5.33446	3.43543	0
131	0.0616944	0.222147	0.230555	115.872	-5.33446	3.43543	0
132	0.059473	0.216211	0.224241	116.096	-5.33446	3.43543	0
133	0.0573109	0.210396	0.218062	116.315	-5.33446	3.43543	0
134	0.0552069	0.204701	0.212015	116.527	-5.33446	3.43543	0
135	0.0531599	0.199125	0.206099	116.733	-5.33446	3.43543	0
136	0.0511686	0.193666	0.200311	116.933	-5.33446	3.43543	0
137	0.049232	0.188322	0.194651	117.128	-5.33446	3.43543	0
138	0.0473488	0.183092	0.189116	117.317	-5.33446	3.43543	0
139	0.0455178	0.177975	0.183703	117.5	-5.33446	3.43543	0
140	0.0437381	0.172968	0.178412	117.679	-5.33446	3.43543	0
141	0.0420084	0.16807	0.17324	117.852	-5.33446	3.43543	0
142	0.0403277	0.163279	0.168186	118.02	-5.33446	3.43543	0
143	0.0386949	0.158594	0.163247	118.184	-5.33446	3.43543	0
144	0.037109	0.154013	0.158421	118.342	-5.33446	3.43543	0
145	0.0355688	0.149535	0.153707	118.496	-5.33446	3.43543	0
146	0.0340735	0.145158	0.149103	118.645	-5.33446	3.43543	0
147	0.0326219	0.140879	0.144607	118.789	-5.33446	3.43543	0
148	0.0312131	0.136699	0.140217	118.93	-5.33446	3.43543	0
149	0.0298461	0.132614	0.135931	119.066	-5.33446	3.43543	0
150	0.02852	0.128624	0.131748	119.197	-5.33446	3.43543	0
151	0.0272338	0.124726	0.127665	119.325	-5.33446	3.43543	0
152	0.0259865	0.12092	0.123681	119.449	-5.33446	3.43543	0
153	0.0247773	0.117204	0.119794	119.568	-5.33446	3.43543	0
154	0.0236053	0.113575	0.116003	119.684	-5.33446	3.43543	0
155	0.0224695	0.110034	0.112305	119.797	-5.33446	3.43543	0
156	0.0213692	0.106577	0.108698	119.905	-5.33446	3.43543	0
157	0.0203034	0.103204	0.105182	120.011	-5.33446	3.43543	0
158	0.0192714	0.0999131	0.101755	120.112	-5.33446	3.43543	0
159	0.0182722	0.0967027	0.0984138	120.211	-5.33446	3.43543	0
160	0.0173052	0.0935712	0.095158	120.306	-5.33446	3.43543	0
161	0.0163695	0.0905174	0.0919857	120.398	-5.33446	3.43543	0
162	0.0154643	0.0875397	0.0888952	120.487	-5.33446	3.43543	0
163	0.0145889	0.0846368	0.0858849	120.573	-5.33446	3.43543	0
164	0.0137426	0.0818071	0.0829533	120.656	-5.33446	3.43543	0
165	0.0129245	0.0790492	0.0800988	120.736	-5.33446	3.43543	0
166	0.012134	0.0763619	0.0773199	120.813	-5.33446	3.43543	0
167	0.0113704	0.0737436	0.0746151	120.888	-5.33446	3.43543	0
168	0.0106329	0.0711931	0.0719828	120.96	-5.33446	3.43543	0
169	0.009921	0.068709	0.0694216	121.029	-5.33446	3.43543	0
170	0.00923391	0.06629	0.06693	121.096	-5.33446	3.43543	0
171	0.00857101	0.0639347	0.0645067	121.161	-5.33446	3.43543	0
172	0.00793166	0.0616419	0.0621501	121.223	-5.33446	3.43543	0
173	0.00731524	0.0594103	0.059859	121.283	-5.33446	3.43543	0
174	0.00672114	0.0572386	0.0576319	121.34	-5.33446	3.43543	0
175	0.00614875	0.0551256	0.0554675	121.396	-5.33446	3.43543	0
176	0.0055975	0.0530701	0.0533644	121.449	-5.33446	3.43543	0
177	0.0050668	0.0510708	0.0513215	121.5	-5.33446	3.43543	0
178	0.00455609	0.0491265	0.0493373	121.55	-5.33446	3.43543	0
179	0.00406483	0.0472361	0.0474107	121.597	-5.33446	3.43543	0
180	0.00359246	0.0453985	0.0455404	121.643	-5.33446	3.43543	0
181	0.00313848	0.0436125	0.0437252	121.686	-5.33446	3.43543	0
182	0.00270235	0.0418769	0.041964	121.728	-5.33446	3.43543	0
183	0.00228359	0.0401906	0.0402555	121.769	-5.33446	3.43543	0
184	0.00188168	0.0385527	0.0385985	121.807	-5.33446	3.43543	0
185	0.00149615	0.0369619	0.0369921	121.844	-5.33446	3.43543	0
186	0.00112653	0.0354172	0.0354351	121.88	-5.33446	3.43543	0
187	0.000772362	0.0339177	0.0339265	121.914	-5.33446	3.43543	0
188	0.000433185	0.0324622	0.0324651	121.946	-5.33446	3.43543	0
189	0.000108563	0.0310498	0.03105	121.977	-5.33446	3.43543	0
190	-0.000201935	0.0296795	0.0296802	122.007	-5.33446	3.43543	0
191	-0.00049873	0.0283503	0.0283547	122.035	-5.33446	3.43543	0
192	-0.000782233	0.0270612	0.0270725	122.062	-5.33446	3.43543	0
193	-0.00105285	0.0258114	0.0258329	122.088	-5.33446	3.43543	0
194	-0.00131096	0.0245999	0.0246348	122.113	-5.33446	3.43543	0
195	-0.00155696	0.0234257	0.0234774	122.136	-5.33446	3.43543	0
196	-0.00179122	0.0222881	0.0223599	122.158	-5.33446	3.43543	0
197	-0.0020141	0.021186	0.0212815	122.18	-5.33446	3.43543	0
198	-0.00222596	0.0201187	0.0202415	122.2	-5.33446	3.43543	0
199	-0.00242714	0.0190854	0.0192391	122.219	-5.33446	3.43543	0
200	-0.002618	0.0180851	0.0182736	122.237	-5.33446	3.43543	0
201	-0.00279885	0.0171171	0.0173445	122.255	-5.33446	3.43543	0
202	-0.00297002	0.0161806	0.0164509	122.271	-5.33446	3.43543	0
203	-0.00313183	0.0152748	0.0155926	122.287	-5.33446	3.43543	0
204	-0.00328457	0.0143989	0.0147688	122.302	-5.33446	3.43543	0
205	-0.00342856	0.0135522	0.0139792	122.316	-5.33446	3.43543	0
206	-0.00356409	0.0127339	0.0132233	122.329	-5.33446	3.43543	0
207	-0.00369143	0.0119434	0.0125008	122.341	-5.33446	3.43543	0
208	-0.00381086	0.0111798	0.0118115	122.353	-5.33446	3.43543	0
209	-0.00392266	0.0104425	0.011155	122.364	-5.33446	3.43543	0
210	-0.00402708	0.00973088	0.0105313	122.375	-5.33446	3.43543	0
211	-0.00412439	0.00904418	0.00994021	122.385	-5.33446	3.43543	0
212	-0.00421483	0.00838177	0.00938184	122.394	-5.33446	3.43543	0
213	-0.00429865	0.00774302	0.00885623	122.403	-5.33446	3.43543	0
214	-0.00437608	0.00712729	0.00836351	122.411	-5.33446	3.43543	0
215	-0.00444735	0.00653396	0.0079039	122.419	-5.33446	3.43543	0
216	-0.00451269	0.00596244	0.00747764	122.427	-5.33446	3.43543	0
217	-0.00457232	0.00541213	0.007085	122.434	-5.33446	3.43543	0
218	-0.00462644	0.00488244	0.00672623	122.441	-5.33446	3.43543	0
219	-0.00467526	0.00437283	0.00640154	122.447	-5.33446	3.43543	0
220	-0.00471899	0.00388272	0.00611101	122.453	-5.33446	3.43543	0
221	-0.00475782	0.00341158	0.00585455	122.459	-5.33446	3.43543	0
222	-0.00479193	0.00295888	0.00563184	122.465	-5.33446	3.43543	0
223	-0.00482152	0.0025241	0.00544226	122.47	-5.33446	3.43543	0
224	-0.00484676	0.00210673	0.00528483	122.475	-5.33446	3.43543	0
225	-0.00486783	0.00170627	0.00515821	122.48	-5.33446	3.43543	0
226	-0.00488489	0.00132224	0.00506068	122.486	-5.33446	3.43543	0
227	-0.00489812	0.000954163	0.00499019	122.49	-5.33446	3.43543	0
228	-0.00490766	0.000601572	0.00494439	122.495	-5.33446	3.43543	0
229	-0.00491367	0.000264017	0.00492076	122.5	-5.33446	3.43543	0
230	-0.00491631	-5.89483e-05	0.00491667	122.505	-5.33446	3.43543	0
231	-0.00491572	-0.000367756	0.00492946	122.51	-5.33446	3.43543	0
232	-0.00491205	-0.000662829	0.00495657	122.515	-5.33446	3.43543	0
233	-0.00490542	-0.000944581	0.00499554	122.52	-5.33446	3.43543	0
234	-0.00489597	-0.00121342	0.0050441	122.525	-5.33446	3.43543	0
235	-0.00488384	-0.00146973	0.0051002	122.53	-5.33446	3.43543	0
236	-0.00486914	-0.00171391	0.00516198	122.535	-5.33446	3.43543	0
237	-0.004852	-0.00194632	0.00522782	122.541	-5.33446	3.43543	0
238	-0.00483254	-0.00216734	0.0052963	122.546	-5.33446	3.43543	0
239	-0.00481087	-0.00237733	0.0053662	122.551	-5.33446	3.43543	0
240	-0.00478709	-0.00257663	0.00543647	122.557	-5.33446	3.43543	0
241	-0.00476133	-0.00276558	0.00550624	122.562	-5.33446	3.43543	0
242	-0.00473367	-0.00294452	0.00557475	122.568	-5.33446	3.43543	0
243	-0.00470423	-0.00311377	0.00564139	122.574	-5.33446	3.43543	0
244	-0.00467309	-0.00327365	0.00570566	122.579	-5.33446	3.43543	0
245	-0.00464035	-0.00342446	0.00576713	122.585	-5.33446	3.43543	0
246	-0.00460611	-0.00356651	0.00582548	122.591	-5.33446	3.43543	0
247	-0.00457044	-0.0037001	0.00588045	122.597	-5.33446	3.43543	0
248	-0.00453344	-0.00382549	0.00593182	122.603	-5.33446	3.43543	0
249	-0.00449519	-0.00394299	0.00597945	122.609	-5.33446	3.43543	0
250	-0.00445576	-0.00405285	0.00602323	122.615	-5.33446	3.43543	0
251	-0.00441523	-0.00415533	0.00606309	122.621	-5.33446	3.43543	0
252	-0.00437367	-0.00425071	0.00609898	122.627	-5.33446	3.43543	0
253	-0.00433117	-0.00433922	0.00613089	122.633	-5.33446	3.43543	0
254	-0.00428777	-0.00442111	0.00615884	122.639	-5.33446	3.43543	0
255	-0.00424356	-0.00449663	0.00618284	122.645	-5.33446	3.43543	0
256	-0.0041986	-0.00456599	0.00620294	122.651	-5.33446	3.43543	0
257	-0.00415294	-0.00462943	0.0062192	122.658	-5.33446	3.43543	0
258	-0.00410664	-0.00468716	0.00623169	122.664	-5.33446	3.43543	0
259	-0.00405977	-0.0047394	0.00624048	122.67	-5.33446	3.43543	0
260	-0.00401238	-0.00478635	0.00624566	122.676	-5.33446	3.43543	0
261	-0.00396451	-0.00482822	0.00624732	122.683	-5.33446	3.43543	0
262	-0.00391623	-0.0048652	0.00624556	122.689	-5.33446	3.43543	0
263	-0.00386758	-0.00489748	0.00624047	122.695	-5.33446	3.43543	0
264	-0.00381861	-0.00492524	0.00623216	122.701	-5.33446	3.43543	0
265	-0.00376935	-0.00494868	0.00622072	122.708	-5.33446	3.43543	0
266	-0.00371987	-0.00496795	0.00620628	122.714	-5.33446	3.43543	0
267	-0.00367019	-0.00498323	0.00618893	122.72	-5.33446	3.43543	0
268	-0.00362035	-0.00499469	0.00616879	122.726	-5.33446	3.43543	0
269	-0.00357041	-0.00500249	0.00614595	122.732	-5.33446	3.43543	0
270	-0.00352038	-0.00500677	0.00612053	122.738	-5.33446	3.43543	0
271	-0.00347031	-0.0050077	0.00609263	122.745	-5.33446	3.43543	0
272	-0.00342024	-0.00500541	0.00606236	122.751	-5.33446	3.43543	0
273	-0.00337018	-0.00500005	0.00602981	122.757	-5.33446	3.43543	0
274	-0.00332018	-0.00499176	0.00599511	122.763	-5.33446	3.43543	0
275	-0.00327027	-0.00498067	0.00595833	122.769	-5.33446	3.43543	0
276	-0.00322046	-0.00496691	0.00591959	122.774	-5.33446	3.43543	0
277	-0.00317079	-0.00495061	0.00587898	122.78	-5.33446	3.43543	0
278	-0.00312128	-0.00493188	0.0058366	122.786	-5.33446	3.43543	0
279	-0.00307196	-0.00491085	0.00579253	122.792	-5.33446	3.43543	0
280	-0.00302286	-0.00488762	0.00574687	122.798	-5.33446	3.43543	0
281	-0.00297398	-0.00486232	0.00569971	122.803	-5.33446	3.43543	0
282	-0.00292536	-0.00483504	0.00565113	122.809	-5.33446	3.43543	0
283	-0.00287701	-0.00480589	0.00560123	122.815	-5.33446	3.43543	0
284	-0.00282895	-0.00477497	0.00555007	122.82	-5.33446	3.43543	0
285	-0.0027812	-0.00474238	0.00549775	122.826	-5.33446	3.43543	0
286	-0.00273377	-0.00470821	0.00544433	122.831	-5.33446	3.43543	0
287	-0.00268669	-0.00467255	0.0053899	122.837	-5.33446	3.43543	0
288	-0.00263997	-0.00463549	0.00533453	122.842	-5.33446	3.43543	0
289	-0.00259361	-0.00459711	0.00527828	122.847	-5.33446	3.43543	0
290	-0.00254764	-0.0045575	0.00522123	122.852	-5.33446	3.43543	0
291	-0.00250207	-0.00451674	0.00516345	122.858	-5.33446	3.43543	0
292	-0.0024569	-0.00447489	0.005105	122.863	-5.33446	3.43543	0
293	-0.00241215	-0.00443204	0.00504594	122.868	-5.33446	3.43543	0
294	-0.00236783	-0.00438826	0.00498632	122.873	-5.33446	3.43543	0
295	-0.00232395	-0.00434361	0.00492622	122.878	-5.33446	3.43543	0
296	-0.00228051	-0.00429816	0.00486569	122.882	-5.33446	3.43543	0
297	-0.00223753	-0.00425198	0.00480477	122.887	-5.33446	3.43543	0
298	-0.00219501	-0.00420512	0.00474353	122.892	-5.33446	3.43543	0
299	-0.00215296	-0.00415765	0.00468201	122.897	-5.33446	3.43543	0
300	-0.00211138	-0.00410962	0.00462027	122.901	-5.33446	3.43543	0
301	-0.00207029	-0.00406108	0.00455834	122.906	-5.33446	3.43543	0
302	-0.00202967	-0.0040121	0.00449628	122.91	-5.33446	3.43543	0
303	-0.00198955	-0.00396271	0.00443412	122.915	-5.33446	3.43543	0
304	-0.00194993	-0.00391298	0.00437191	122.919	-5.33446	3.43543	0
305	-0.0019108	-0.00386294	0.00430969	122.924	-5.33446	3.43543	0
306	-0.00187217	-0.00381264	0.00424749	122.928	-5.33446	3.43543	0
307	-0.00183404	-0.00376212	0.00418536	122.932	-5.33446	3.43543	0
308	-0.00179642	-0.00371143	0.00412333	122.936	-5.33446	3.43543	0
309	-0.00175931	-0.00366061	0.00406143	122.94	-5.33446	3.43543	0
310	-0.0017227	-0.00360969	0.00399969	122.944	-5.33446	3.43543	0
311	-0.0016866	-0.0035587	0.00393815	122.948	-5.33446	3.43543	0
312	-0.00165102	-0.0035077	0.00387683	122.952	-5.33446	3.43543	0
313	-0.00161594	-0.0034567	0.00381576	122.956	-5.33446	3.43543	0
314	-0.00158137	-0.00340574	0.00375497	122.96	-5.33446	3.43543	0
315	-0.00154731	-0.00335485	0.00369448	122.963	-5.33446	3.43543	0
316	-0.00151377	-0.00330406	0.00363433	122.967	-5.33446	3.43543	0
317	-0.00148072	-0.0032534	0.00357452	122.97	-5.33446	3.43543	0
318	-0.00144819	-0.0032029	0.00351508	122.974	-5.33446	3.43543	0
319	-0.00141616	-0.00315257	0.00345604	122.977	-5.33446	3.43543	0
320	-0.00138464	-0.00310245	0.00339741	122.981	-5.33446	3.43543	0
321	-0.00135361	-0.00305255	0.00333921	122.984	-5.33446	3.43543	0
322	-0.00132309	-0.0030029	0.00328146	122.987	-5.33446	3.43543	0
323	-0.00129306	-0.00295352	0.00322417	122.991	-5.33446	3.43543	0
324	-0.00126352	-0.00290442	0.00316736	122.994	-5.33446	3.43543	0
325	-0.00123448	-0.00285564	0.00311105	122.997	-5.33446	3.43543	0
326	-0.00120592	-0.00280718	0.00305524	123	-5.33446	3.43543	0
327	-0.00117785	-0.00275905	0.00299995	123.003	-5.33446	3.43543	0
