
Current theta : [ -5.63381 , 3.54717 ] 


t	x[0]	x[1]	P	theta[0]	theta[1]	theta[2]
0	0.999	0.162791	1.01218	1.01218	-5.63381	3.54717	0
1	0.997372	0.223285	1.02206	2.03424	-5.63381	3.54717	0
2	0.995139	0.281517	1.03419	3.06843	-5.63381	3.54717	0
3	0.992324	0.337519	1.04815	4.11658	-5.63381	3.54717	0
4	0.988949	0.391324	1.06356	5.18014	-5.63381	3.54717	0
5	0.985036	0.442962	1.08005	6.26019	-5.63381	3.54717	0
6	0.980606	0.492463	1.09732	7.35751	-5.63381	3.54717	0
7	0.975681	0.539857	1.11508	8.47259	-5.63381	3.54717	0
8	0.970283	0.585173	1.13308	9.60567	-5.63381	3.54717	0
9	0.964431	0.628439	1.15111	10.7568	-5.63381	3.54717	0
10	0.958147	0.669687	1.16898	11.9258	-5.63381	3.54717	0
11	0.95145	0.708945	1.18653	13.1123	-5.63381	3.54717	0
12	0.94436	0.746243	1.20362	14.3159	-5.63381	3.54717	0
13	0.936898	0.781612	1.22012	15.536	-5.63381	3.54717	0
14	0.929082	0.815084	1.23594	16.772	-5.63381	3.54717	0
15	0.920931	0.84669	1.251	18.023	-5.63381	3.54717	0
16	0.912464	0.876463	1.26522	19.2882	-5.63381	3.54717	0
17	0.903699	0.904437	1.27855	20.5667	-5.63381	3.54717	0
18	0.894655	0.930647	1.29093	21.8577	-5.63381	3.54717	0
19	0.885349	0.955127	1.30235	23.16	-5.63381	3.54717	0
20	0.875797	0.977915	1.31276	24.4728	-5.63381	3.54717	0
21	0.866018	0.999047	1.32215	25.7949	-5.63381	3.54717	0
22	0.856028	1.01856	1.33051	27.1254	-5.63381	3.54717	0
23	0.845842	1.0365	1.33782	28.4633	-5.63381	3.54717	0
24	0.835477	1.05289	1.3441	29.8074	-5.63381	3.54717	0
25	0.824948	1.06779	1.34934	31.1567	-5.63381	3.54717	0
26	0.81427	1.08123	1.35355	32.5103	-5.63381	3.54717	0
27	0.803458	1.09325	1.35674	33.867	-5.63381	3.54717	0
28	0.792526	1.10389	1.35892	35.2259	-5.63381	3.54717	0
29	0.781487	1.11321	1.36013	36.586	-5.63381	3.54717	0
30	0.770355	1.12123	1.36037	37.9464	-5.63381	3.54717	0
31	0.759142	1.128	1.35966	39.3061	-5.63381	3.54717	0
32	0.747862	1.13357	1.35804	40.6641	-5.63381	3.54717	0
33	0.736527	1.13798	1.35553	42.0196	-5.63381	3.54717	0
34	0.725147	1.14126	1.35215	43.3718	-5.63381	3.54717	0
35	0.713734	1.14347	1.34794	44.7197	-5.63381	3.54717	0
36	0.7023	1.14465	1.34293	46.0627	-5.63381	3.54717	0
37	0.690853	1.14484	1.33713	47.3998	-5.63381	3.54717	0
38	0.679405	1.14407	1.3306	48.7304	-5.63381	3.54717	0
39	0.667964	1.1424	1.32335	50.0537	-5.63381	3.54717	0
40	0.65654	1.13986	1.31542	51.3692	-5.63381	3.54717	0
41	0.645141	1.1365	1.30684	52.676	-5.63381	3.54717	0
42	0.633776	1.13235	1.29764	53.9736	-5.63381	3.54717	0
43	0.622453	1.12745	1.28786	55.2615	-5.63381	3.54717	0
44	0.611178	1.12184	1.27752	56.539	-5.63381	3.54717	0
45	0.59996	1.11556	1.26666	57.8057	-5.63381	3.54717	0
46	0.588804	1.10865	1.25531	59.061	-5.63381	3.54717	0
47	0.577718	1.10115	1.24349	60.3045	-5.63381	3.54717	0
48	0.566706	1.09307	1.23125	61.5358	-5.63381	3.54717	0
49	0.555776	1.08447	1.21859	62.7543	-5.63381	3.54717	0
50	0.544931	1.07538	1.20557	63.9599	-5.63381	3.54717	0
51	0.534177	1.06582	1.19219	65.1521	-5.63381	3.54717	0
52	0.523519	1.05584	1.1785	66.3306	-5.63381	3.54717	0
53	0.51296	1.04545	1.16451	67.4951	-5.63381	3.54717	0
54	0.502506	1.03469	1.15026	68.6454	-5.63381	3.54717	0
55	0.492159	1.02359	1.13576	69.7811	-5.63381	3.54717	0
56	0.481923	1.01217	1.12105	70.9022	-5.63381	3.54717	0
57	0.471801	1.00047	1.10613	72.0083	-5.63381	3.54717	0
58	0.461797	0.988501	1.09105	73.0994	-5.63381	3.54717	0
59	0.451912	0.976295	1.07581	74.1752	-5.63381	3.54717	0
60	0.442149	0.963874	1.06045	75.2356	-5.63381	3.54717	0
61	0.43251	0.95126	1.04497	76.2806	-5.63381	3.54717	0
62	0.422998	0.938476	1.0294	77.31	-5.63381	3.54717	0
63	0.413613	0.925542	1.01376	78.3238	-5.63381	3.54717	0
64	0.404357	0.912478	0.998058	79.3218	-5.63381	3.54717	0
65	0.395233	0.899302	0.98232	80.3041	-5.63381	3.54717	0
66	0.38624	0.886033	0.966558	81.2707	-5.63381	3.54717	0
67	0.377379	0.872688	0.950788	82.2215	-5.63381	3.54717	0
68	0.368652	0.859282	0.935024	83.1565	-5.63381	3.54717	0
69	0.36006	0.845833	0.91928	84.0758	-5.63381	3.54717	0
70	0.351601	0.832353	0.903568	84.9794	-5.63381	3.54717	0
71	0.343278	0.818858	0.887901	85.8673	-5.63381	3.54717	0
72	0.335089	0.805361	0.87229	86.7395	-5.63381	3.54717	0
73	0.327035	0.791873	0.856747	87.5963	-5.63381	3.54717	0
74	0.319117	0.778407	0.841281	88.4376	-5.63381	3.54717	0
75	0.311333	0.764974	0.825901	89.2635	-5.63381	3.54717	0
76	0.303683	0.751584	0.810618	90.0741	-5.63381	3.54717	0
77	0.296167	0.738247	0.795439	90.8695	-5.63381	3.54717	0
78	0.288785	0.724972	0.780372	91.6499	-5.63381	3.54717	0
79	0.281535	0.711768	0.765425	92.4153	-5.63381	3.54717	0
80	0.274417	0.698644	0.750605	93.1659	-5.63381	3.54717	0
81	0.267431	0.685606	0.735917	93.9019	-5.63381	3.54717	0
82	0.260575	0.672661	0.721368	94.6232	-5.63381	3.54717	0
83	0.253848	0.659817	0.706963	95.3302	-5.63381	3.54717	0
84	0.24725	0.647079	0.692707	96.0229	-5.63381	3.54717	0
85	0.240779	0.634453	0.678605	96.7015	-5.63381	3.54717	0
86	0.234435	0.621944	0.66466	97.3662	-5.63381	3.54717	0
87	0.228215	0.609556	0.650877	98.017	-5.63381	3.54717	0
88	0.22212	0.597296	0.637259	98.6543	-5.63381	3.54717	0
89	0.216147	0.585165	0.623809	99.2781	-5.63381	3.54717	0
90	0.210295	0.573169	0.61053	99.8886	-5.63381	3.54717	0
91	0.204563	0.56131	0.597424	100.486	-5.63381	3.54717	0
92	0.19895	0.549591	0.584493	101.071	-5.63381	3.54717	0
93	0.193454	0.538016	0.571739	101.642	-5.63381	3.54717	0
94	0.188074	0.526586	0.559165	102.201	-5.63381	3.54717	0
95	0.182808	0.515304	0.54677	102.748	-5.63381	3.54717	0
96	0.177655	0.504172	0.534556	103.283	-5.63381	3.54717	0
97	0.172614	0.493191	0.522525	103.805	-5.63381	3.54717	0
98	0.167682	0.482362	0.510676	104.316	-5.63381	3.54717	0
99	0.162858	0.471688	0.499011	104.815	-5.63381	3.54717	0
100	0.158141	0.461168	0.487529	105.303	-5.63381	3.54717	0
101	0.153529	0.450804	0.476231	105.779	-5.63381	3.54717	0
102	0.149021	0.440596	0.465115	106.244	-5.63381	3.54717	0
103	0.144615	0.430545	0.454184	106.698	-5.63381	3.54717	0
104	0.14031	0.420651	0.443435	107.141	-5.63381	3.54717	0
105	0.136103	0.410914	0.432868	107.574	-5.63381	3.54717	0
106	0.131994	0.401334	0.422483	107.997	-5.63381	3.54717	0
107	0.127981	0.391911	0.412278	108.409	-5.63381	3.54717	0
108	0.124062	0.382644	0.402254	108.811	-5.63381	3.54717	0
109	0.120235	0.373534	0.392408	109.204	-5.63381	3.54717	0
110	0.1165	0.364579	0.38274	109.587	-5.63381	3.54717	0
111	0.112854	0.355778	0.373248	109.96	-5.63381	3.54717	0
112	0.109297	0.347132	0.363932	110.324	-5.63381	3.54717	0
113	0.105825	0.33864	0.35479	110.678	-5.63381	3.54717	0
114	0.102439	0.330299	0.34582	111.024	-5.63381	3.54717	0
115	0.0991358	0.32211	0.337021	111.361	-5.63381	3.54717	0
116	0.0959147	0.314071	0.328391	111.69	-5.63381	3.54717	0
117	0.092774	0.306182	0.319929	112.01	-5.63381	3.54717	0
118	0.0897122	0.29844	0.311632	112.321	-5.63381	3.54717	0
119	0.0867278	0.290845	0.3035	112.625	-5.63381	3.54717	0
120	0.0838193	0.283395	0.29553	112.92	-5.63381	3.54717	0
121	0.0809854	0.276089	0.287721	113.208	-5.63381	3.54717	0
122	0.0782245	0.268925	0.280071	113.488	-5.63381	3.54717	0
123	0.0755353	0.261902	0.272577	113.761	-5.63381	3.54717	0
124	0.0729162	0.255019	0.265238	114.026	-5.63381	3.54717	0
125	0.070366	0.248273	0.258052	114.284	-5.63381	3.54717	0
126	0.0678833	0.241664	0.251017	114.535	-5.63381	3.54717	0
127	0.0654667	0.23519	0.244131	114.779	-5.63381	3.54717	0
128	0.0631148	0.228848	0.237392	115.017	-5.63381	3.54717	0
129	0.0608263	0.222638	0.230798	115.247	-5.63381	3.54717	0
130	0.0585999	0.216558	0.224346	115.472	-5.63381	3.54717	0
131	0.0564343	0.210605	0.218035	115.69	-5.63381	3.54717	0
132	0.0543283	0.204779	0.211863	115.902	-5.63381	3.54717	0
133	0.0522805	0.199078	0.205828	116.107	-5.63381	3.54717	0
134	0.0502897	0.193499	0.199927	116.307	-5.63381	3.54717	0
135	0.0483547	0.188041	0.194159	116.501	-5.63381	3.54717	0
136	0.0464743	0.182703	0.188521	116.69	-5.63381	3.54717	0
137	0.0446473	0.177482	0.183011	116.873	-5.63381	3.54717	0
138	0.0428725	0.172377	0.177628	117.051	-5.63381	3.54717	0
139	0.0411487	0.167386	0.172369	117.223	-5.63381	3.54717	0
140	0.0394749	0.162507	0.167233	117.39	-5.63381	3.54717	0
141	0.0378498	0.157739	0.162216	117.552	-5.63381	3.54717	0
142	0.0362724	0.153079	0.157318	117.71	-5.63381	3.54717	0
143	0.0347416	0.148527	0.152536	117.862	-5.63381	3.54717	0
144	0.0332563	0.144079	0.147868	118.01	-5.63381	3.54717	0
145	0.0318155	0.139736	0.143312	118.153	-5.63381	3.54717	0
146	0.0304182	0.135494	0.138866	118.292	-5.63381	3.54717	0
147	0.0290633	0.131352	0.134528	118.427	-5.63381	3.54717	0
148	0.0277497	0.127308	0.130297	118.557	-5.63381	3.54717	0
149	0.0264767	0.123361	0.12617	118.683	-5.63381	3.54717	0
150	0.025243	0.119509	0.122146	118.805	-5.63381	3.54717	0
151	0.024048	0.11575	0.118221	118.924	-5.63381	3.54717	0
152	0.0228905	0.112082	0.114396	119.038	-5.63381	3.54717	0
153	0.0217696	0.108505	0.110667	119.149	-5.63381	3.54717	0
154	0.0206846	0.105016	0.107033	119.256	-5.63381	3.54717	0
155	0.0196344	0.101613	0.103493	119.359	-5.63381	3.54717	0
156	0.0186183	0.0982954	0.100043	119.459	-5.63381	3.54717	0
157	0.0176354	0.0950612	0.0966832	119.556	-5.63381	3.54717	0
158	0.0166847	0.0919088	0.0934109	119.649	-5.63381	3.54717	0
159	0.0157657	0.0888366	0.0902247	119.74	-5.63381	3.54717	0
160	0.0148773	0.0858431	0.0871228	119.827	-5.63381	3.54717	0
161	0.0140189	0.0829268	0.0841034	119.911	-5.63381	3.54717	0
162	0.0131896	0.0800861	0.081165	119.992	-5.63381	3.54717	0
163	0.0123887	0.0773196	0.0783058	120.07	-5.63381	3.54717	0
164	0.0116155	0.0746257	0.0755243	120.146	-5.63381	3.54717	0
165	0.0108693	0.072003	0.0728188	120.219	-5.63381	3.54717	0
166	0.0101492	0.06945	0.0701877	120.289	-5.63381	3.54717	0
167	0.00945474	0.0669654	0.0676295	120.357	-5.63381	3.54717	0
168	0.00878509	0.0645476	0.0651427	120.422	-5.63381	3.54717	0
169	0.00813961	0.0621953	0.0627257	120.484	-5.63381	3.54717	0
170	0.00751766	0.0599072	0.0603771	120.545	-5.63381	3.54717	0
171	0.00691859	0.0576819	0.0580953	120.603	-5.63381	3.54717	0
172	0.00634177	0.055518	0.055879	120.659	-5.63381	3.54717	0
173	0.00578659	0.0534142	0.0537267	120.712	-5.63381	3.54717	0
174	0.00525245	0.0513692	0.0516371	120.764	-5.63381	3.54717	0
175	0.00473875	0.0493819	0.0496087	120.814	-5.63381	3.54717	0
176	0.00424494	0.0474507	0.0476402	120.861	-5.63381	3.54717	0
177	0.00377043	0.0455747	0.0457304	120.907	-5.63381	3.54717	0
178	0.00331468	0.0437525	0.0438778	120.951	-5.63381	3.54717	0
179	0.00287716	0.0419828	0.0420813	120.993	-5.63381	3.54717	0
180	0.00245733	0.0402647	0.0403396	121.033	-5.63381	3.54717	0
181	0.00205468	0.0385968	0.0386514	121.072	-5.63381	3.54717	0
182	0.00166871	0.036978	0.0370157	121.109	-5.63381	3.54717	0
183	0.00129893	0.0354073	0.0354311	121.144	-5.63381	3.54717	0
184	0.00094486	0.0338834	0.0338966	121.178	-5.63381	3.54717	0
185	0.000606026	0.0324054	0.032411	121.211	-5.63381	3.54717	0
186	0.000281972	0.030972	0.0309733	121.242	-5.63381	3.54717	0
187	-2.77481e-05	0.0295824	0.0295824	121.271	-5.63381	3.54717	0
188	-0.000323572	0.0282354	0.0282372	121.3	-5.63381	3.54717	0
189	-0.000605926	0.02693	0.0269368	121.327	-5.63381	3.54717	0
190	-0.000875226	0.0256653	0.0256802	121.352	-5.63381	3.54717	0
191	-0.00113188	0.0244402	0.0244663	121.377	-5.63381	3.54717	0
192	-0.00137628	0.0232537	0.0232944	121.4	-5.63381	3.54717	0
193	-0.00160882	0.022105	0.0221635	121.422	-5.63381	3.54717	0
194	-0.00182987	0.0209932	0.0210728	121.443	-5.63381	3.54717	0
195	-0.0020398	0.0199172	0.0200214	121.463	-5.63381	3.54717	0
196	-0.00223897	0.0188762	0.0190085	121.482	-5.63381	3.54717	0
197	-0.00242773	0.0178693	0.0180335	121.5	-5.63381	3.54717	0
198	-0.00260643	0.0168957	0.0170956	121.517	-5.63381	3.54717	0
199	-0.00277538	0.0159545	0.0161941	121.534	-5.63381	3.54717	0
200	-0.00293493	0.015045	0.0153286	121.549	-5.63381	3.54717	0
201	-0.00308538	0.0141661	0.0144982	121.563	-5.63381	3.54717	0
202	-0.00322704	0.0133173	0.0137027	121.577	-5.63381	3.54717	0
203	-0.00336021	0.0124977	0.0129415	121.59	-5.63381	3.54717	0
204	-0.00348519	0.0117065	0.0122143	121.602	-5.63381	3.54717	0
205	-0.00360225	0.010943	0.0115206	121.614	-5.63381	3.54717	0
206	-0.00371168	0.0102064	0.0108603	121.625	-5.63381	3.54717	0
207	-0.00381375	0.00949607	0.0102333	121.635	-5.63381	3.54717	0
208	-0.00390871	0.00881127	0.00963932	121.644	-5.63381	3.54717	0
209	-0.00399682	0.00815131	0.00907846	121.654	-5.63381	3.54717	0
210	-0.00407833	0.00751552	0.00855078	121.662	-5.63381	3.54717	0
211	-0.00415349	0.00690323	0.00805643	121.67	-5.63381	3.54717	0
212	-0.00422252	0.00631379	0.00759563	121.678	-5.63381	3.54717	0
213	-0.00428566	0.00574658	0.00716869	121.685	-5.63381	3.54717	0
214	-0.00434313	0.00520097	0.0067759	121.692	-5.63381	3.54717	0
215	-0.00439514	0.00467636	0.0064176	121.698	-5.63381	3.54717	0
216	-0.0044419	0.00417215	0.00609404	121.704	-5.63381	3.54717	0
217	-0.00448362	0.00368777	0.00580539	121.71	-5.63381	3.54717	0
218	-0.0045205	0.00322265	0.00555161	121.716	-5.63381	3.54717	0
219	-0.00455272	0.00277623	0.00533243	121.721	-5.63381	3.54717	0
220	-0.00458049	0.00234797	0.00514722	121.726	-5.63381	3.54717	0
221	-0.00460397	0.00193735	0.00499498	121.731	-5.63381	3.54717	0
222	-0.00462334	0.00154383	0.00487429	121.736	-5.63381	3.54717	0
223	-0.00463878	0.00116693	0.0047833	121.741	-5.63381	3.54717	0
224	-0.00465045	0.00080614	0.0047198	121.745	-5.63381	3.54717	0
225	-0.00465851	0.000460982	0.00468126	121.75	-5.63381	3.54717	0
226	-0.00466312	0.000130984	0.00466496	121.755	-5.63381	3.54717	0
227	-0.00466443	-0.000184315	0.00466807	121.759	-5.63381	3.54717	0
228	-0.00466259	-0.000485363	0.00468778	121.764	-5.63381	3.54717	0
229	-0.00465773	-0.000772599	0.00472137	121.769	-5.63381	3.54717	0
230	-0.00465001	-0.00104645	0.0047663	121.774	-5.63381	3.54717	0
231	-0.00463954	-0.00130734	0.00482022	121.778	-5.63381	3.54717	0
232	-0.00462647	-0.00155567	0.00488102	121.783	-5.63381	3.54717	0
233	-0.00461091	-0.00179184	0.00494684	121.788	-5.63381	3.54717	0
234	-0.00459299	-0.00201625	0.00501606	121.793	-5.63381	3.54717	0
235	-0.00457283	-0.00222925	0.00508727	121.798	-5.63381	3.54717	0
236	-0.00455054	-0.00243124	0.00515929	121.804	-5.63381	3.54717	0
237	-0.00452623	-0.00262256	0.00523111	121.809	-5.63381	3.54717	0
238	-0.0045	-0.00280357	0.00530189	121.814	-5.63381	3.54717	0
239	-0.00447196	-0.00297461	0.00537092	121.819	-5.63381	3.54717	0
240	-0.00444222	-0.00313601	0.00543763	121.825	-5.63381	3.54717	0
241	-0.00441086	-0.0032881	0.00550157	121.83	-5.63381	3.54717	0
242	-0.00437798	-0.00343119	0.00556235	121.836	-5.63381	3.54717	0
243	-0.00434367	-0.0035656	0.00561969	121.842	-5.63381	3.54717	0
244	-0.00430801	-0.00369161	0.00567335	121.847	-5.63381	3.54717	0
245	-0.00427109	-0.00380954	0.00572318	121.853	-5.63381	3.54717	0
246	-0.004233	-0.00391965	0.00576905	121.859	-5.63381	3.54717	0
247	-0.0041938	-0.00402222	0.00581087	121.865	-5.63381	3.54717	0
248	-0.00415358	-0.00411753	0.00584862	121.87	-5.63381	3.54717	0
249	-0.0041124	-0.00420584	0.00588226	121.876	-5.63381	3.54717	0
250	-0.00407035	-0.00428741	0.00591182	121.882	-5.63381	3.54717	0
251	-0.00402747	-0.00436247	0.00593731	121.888	-5.63381	3.54717	0
252	-0.00398385	-0.00443128	0.0059588	121.894	-5.63381	3.54717	0
253	-0.00393953	-0.00449406	0.00597633	121.9	-5.63381	3.54717	0
254	-0.00389459	-0.00455105	0.00598998	121.906	-5.63381	3.54717	0
255	-0.00384908	-0.00460246	0.00599984	121.912	-5.63381	3.54717	0
256	-0.00380306	-0.00464852	0.006006	121.918	-5.63381	3.54717	0
257	-0.00375657	-0.00468944	0.00600855	121.924	-5.63381	3.54717	0
258	-0.00370968	-0.0047254	0.00600759	121.93	-5.63381	3.54717	0
259	-0.00366242	-0.00475662	0.00600323	121.936	-5.63381	3.54717	0
260	-0.00361486	-0.00478329	0.00599559	121.942	-5.63381	3.54717	0
261	-0.00356703	-0.00480559	0.00598476	121.948	-5.63381	3.54717	0
262	-0.00351897	-0.0048237	0.00597087	121.954	-5.63381	3.54717	0
263	-0.00347073	-0.0048378	0.00595402	121.96	-5.63381	3.54717	0
264	-0.00342235	-0.00484806	0.00593432	121.966	-5.63381	3.54717	0
265	-0.00337387	-0.00485464	0.0059119	121.972	-5.63381	3.54717	0
266	-0.00332533	-0.00485771	0.00588686	121.978	-5.63381	3.54717	0
267	-0.00327675	-0.00485742	0.00585932	121.984	-5.63381	3.54717	0
268	-0.00322818	-0.00485392	0.00582938	121.989	-5.63381	3.54717	0
269	-0.00317964	-0.00484735	0.00579715	121.995	-5.63381	3.54717	0
270	-0.00313116	-0.00483787	0.00576274	122.001	-5.63381	3.54717	0
271	-0.00308278	-0.0048256	0.00572625	122.007	-5.63381	3.54717	0
272	-0.00303453	-0.00481067	0.00568779	122.012	-5.63381	3.54717	0
273	-0.00298642	-0.00479323	0.00564746	122.018	-5.63381	3.54717	0
274	-0.00293849	-0.00477339	0.00560535	122.024	-5.63381	3.54717	0
275	-0.00289076	-0.00475127	0.00556157	122.029	-5.63381	3.54717	0
276	-0.00284324	-0.00472699	0.0055162	122.035	-5.63381	3.54717	0
277	-0.00279597	-0.00470066	0.00546934	122.04	-5.63381	3.54717	0
278	-0.00274897	-0.00467239	0.00542107	122.046	-5.63381	3.54717	0
279	-0.00270224	-0.00464229	0.0053715	122.051	-5.63381	3.54717	0
280	-0.00265582	-0.00461046	0.00532069	122.056	-5.63381	3.54717	0
281	-0.00260972	-0.004577	0.00526873	122.062	-5.63381	3.54717	0
282	-0.00256395	-0.004542	0.0052157	122.067	-5.63381	3.54717	0
283	-0.00251853	-0.00450555	0.00516168	122.072	-5.63381	3.54717	0
284	-0.00247347	-0.00446775	0.00510674	122.077	-5.63381	3.54717	0
285	-0.00242879	-0.00442868	0.00505096	122.082	-5.63381	3.54717	0
286	-0.00238451	-0.00438842	0.00499441	122.087	-5.63381	3.54717	0
287	-0.00234062	-0.00434705	0.00493714	122.092	-5.63381	3.54717	0
288	-0.00229715	-0.00430466	0.00487924	122.097	-5.63381	3.54717	0
289	-0.0022541	-0.00426131	0.00482076	122.102	-5.63381	3.54717	0
290	-0.00221149	-0.00421707	0.00476176	122.106	-5.63381	3.54717	0
291	-0.00216932	-0.00417202	0.00470231	122.111	-5.63381	3.54717	0
292	-0.0021276	-0.00412622	0.00464245	122.116	-5.63381	3.54717	0
293	-0.00208634	-0.00407973	0.00458225	122.12	-5.63381	3.54717	0
294	-0.00204554	-0.00403263	0.00452176	122.125	-5.63381	3.54717	0
295	-0.00200521	-0.00398495	0.00446102	122.129	-5.63381	3.54717	0
296	-0.00196537	-0.00393677	0.00440009	122.134	-5.63381	3.54717	0
297	-0.001926	-0.00388814	0.00433902	122.138	-5.63381	3.54717	0
298	-0.00188712	-0.00383911	0.00427784	122.142	-5.63381	3.54717	0
299	-0.00184872	-0.00378972	0.00421661	122.147	-5.63381	3.54717	0
300	-0.00181083	-0.00374004	0.00415536	122.151	-5.63381	3.54717	0
301	-0.00177343	-0.0036901	0.00409413	122.155	-5.63381	3.54717	0
302	-0.00173653	-0.00363995	0.00403296	122.159	-5.63381	3.54717	0
303	-0.00170013	-0.00358963	0.00397189	122.163	-5.63381	3.54717	0
304	-0.00166423	-0.00353919	0.00391095	122.167	-5.63381	3.54717	0
305	-0.00162884	-0.00348866	0.00385017	122.171	-5.63381	3.54717	0
306	-0.00159395	-0.00343808	0.0037896	122.174	-5.63381	3.54717	0
307	-0.00155957	-0.00338748	0.00372925	122.178	-5.63381	3.54717	0
308	-0.0015257	-0.00333691	0.00366915	122.182	-5.63381	3.54717	0
309	-0.00149233	-0.00328638	0.00360934	122.185	-5.63381	3.54717	0
310	-0.00145946	-0.00323594	0.00354984	122.189	-5.63381	3.54717	0
311	-0.0014271	-0.00318562	0.00349067	122.192	-5.63381	3.54717	0
312	-0.00139525	-0.00313543	0.00343186	122.196	-5.63381	3.54717	0
313	-0.00136389	-0.00308542	0.00337343	122.199	-5.63381	3.54717	0
314	-0.00133304	-0.0030356	0.00331539	122.203	-5.63381	3.54717	0
315	-0.00130268	-0.00298599	0.00325778	122.206	-5.63381	3.54717	0
316	-0.00127282	-0.00293663	0.00320061	122.209	-5.63381	3.54717	0
317	-0.00124346	-0.00288754	0.00314389	122.212	-5.63381	3.54717	0
318	-0.00121458	-0.00283872	0.00308765	122.215	-5.63381	3.54717	0
319	-0.00118619	-0.00279021	0.00303189	122.218	-5.63381	3.54717	0
320	-0.00115829	-0.00274203	0.00297664	122.221	-5.63381	3.54717	0
321	-0.00113087	-0.00269418	0.0029219	122.224	-5.63381	3.54717	0
322	-0.00110393	-0.00264669	0.00286769	122.227	-5.63381	3.54717	0
323	-0.00107746	-0.00259958	0.00281402	122.23	-5.63381	3.54717	0
324	-0.00105147	-0.00255285	0.00276091	122.233	-5.63381	3.54717	0
325	-0.00102594	-0.00250652	0.00270835	122.235	-5.63381	3.54717	0
326	-0.00100087	-0.0024606	0.00265637	122.238	-5.63381	3.54717	0
327	-0.000976268	-0.00241511	0.00260496	122.241	-5.63381	3.54717	0
