
Current theta : [ 1.3173 , -1.67475 , 1.00407 ] 


t	x[0]	x[1]	P	theta[0]	theta[1]	theta[2]
0	0.99	-0.980079	1.39307	1.39307	1.3173	-1.67475	1.00407
1	0.980199	-0.960523	1.37237	2.76544	1.3173	-1.67475	1.00407
2	0.970594	-0.941325	1.35209	4.11753	1.3173	-1.67475	1.00407
3	0.961181	-0.922479	1.33223	5.44976	1.3173	-1.67475	1.00407
4	0.951956	-0.903977	1.31278	6.76254	1.3173	-1.67475	1.00407
5	0.942916	-0.885813	1.29374	8.05628	1.3173	-1.67475	1.00407
6	0.934058	-0.867982	1.27509	9.33137	1.3173	-1.67475	1.00407
7	0.925378	-0.850477	1.25684	10.5882	1.3173	-1.67475	1.00407
8	0.916873	-0.833293	1.23896	11.8272	1.3173	-1.67475	1.00407
9	0.908541	-0.816422	1.22147	13.0486	1.3173	-1.67475	1.00407
10	0.900376	-0.799861	1.20435	14.253	1.3173	-1.67475	1.00407
11	0.892378	-0.783602	1.18759	15.4406	1.3173	-1.67475	1.00407
12	0.884542	-0.767641	1.17119	16.6118	1.3173	-1.67475	1.00407
13	0.876865	-0.751971	1.15514	17.7669	1.3173	-1.67475	1.00407
14	0.869346	-0.736588	1.13944	18.9064	1.3173	-1.67475	1.00407
15	0.86198	-0.721486	1.12408	20.0304	1.3173	-1.67475	1.00407
16	0.854765	-0.70666	1.10905	21.1395	1.3173	-1.67475	1.00407
17	0.847698	-0.692106	1.09435	22.2338	1.3173	-1.67475	1.00407
18	0.840777	-0.677817	1.07997	23.3138	1.3173	-1.67475	1.00407
19	0.833999	-0.663789	1.06591	24.3797	1.3173	-1.67475	1.00407
20	0.827361	-0.650018	1.05216	25.4319	1.3173	-1.67475	1.00407
21	0.820861	-0.636498	1.03872	26.4706	1.3173	-1.67475	1.00407
22	0.814496	-0.623225	1.02558	27.4962	1.3173	-1.67475	1.00407
23	0.808264	-0.610195	1.01273	28.5089	1.3173	-1.67475	1.00407
24	0.802162	-0.597402	1.00018	29.5091	1.3173	-1.67475	1.00407
25	0.796188	-0.584843	0.987905	30.497	1.3173	-1.67475	1.00407
26	0.790339	-0.572514	0.975914	31.4729	1.3173	-1.67475	1.00407
27	0.784614	-0.560409	0.964198	32.4371	1.3173	-1.67475	1.00407
28	0.77901	-0.548525	0.952752	33.3899	1.3173	-1.67475	1.00407
29	0.773525	-0.536858	0.941572	34.3314	1.3173	-1.67475	1.00407
30	0.768156	-0.525404	0.930652	35.2621	1.3173	-1.67475	1.00407
31	0.762902	-0.514158	0.919988	36.1821	1.3173	-1.67475	1.00407
32	0.757761	-0.503118	0.909576	37.0916	1.3173	-1.67475	1.00407
33	0.752729	-0.492279	0.899411	37.9911	1.3173	-1.67475	1.00407
34	0.747807	-0.481637	0.889488	38.8805	1.3173	-1.67475	1.00407
35	0.74299	-0.47119	0.879804	39.7604	1.3173	-1.67475	1.00407
36	0.738278	-0.460932	0.870353	40.6307	1.3173	-1.67475	1.00407
37	0.733669	-0.450862	0.861131	41.4918	1.3173	-1.67475	1.00407
38	0.72916	-0.440974	0.852135	42.344	1.3173	-1.67475	1.00407
39	0.724751	-0.431267	0.843359	43.1873	1.3173	-1.67475	1.00407
40	0.720438	-0.421736	0.834801	44.0221	1.3173	-1.67475	1.00407
41	0.716221	-0.412379	0.826455	44.8486	1.3173	-1.67475	1.00407
42	0.712097	-0.403192	0.818319	45.6669	1.3173	-1.67475	1.00407
43	0.708065	-0.394172	0.810387	46.4773	1.3173	-1.67475	1.00407
44	0.704123	-0.385316	0.802657	47.2799	1.3173	-1.67475	1.00407
45	0.70027	-0.376621	0.795123	48.0751	1.3173	-1.67475	1.00407
46	0.696504	-0.368083	0.787784	48.8629	1.3173	-1.67475	1.00407
47	0.692823	-0.359701	0.780633	49.6435	1.3173	-1.67475	1.00407
48	0.689226	-0.351471	0.773669	50.4172	1.3173	-1.67475	1.00407
49	0.685711	-0.34339	0.766888	51.184	1.3173	-1.67475	1.00407
50	0.682277	-0.335456	0.760285	51.9443	1.3173	-1.67475	1.00407
51	0.678923	-0.327666	0.753858	52.6982	1.3173	-1.67475	1.00407
52	0.675646	-0.320017	0.747602	53.4458	1.3173	-1.67475	1.00407
53	0.672446	-0.312507	0.741515	54.1873	1.3173	-1.67475	1.00407
54	0.669321	-0.305132	0.735592	54.9229	1.3173	-1.67475	1.00407
55	0.66627	-0.297891	0.729832	55.6527	1.3173	-1.67475	1.00407
56	0.663291	-0.290782	0.72423	56.377	1.3173	-1.67475	1.00407
57	0.660383	-0.2838	0.718782	57.0957	1.3173	-1.67475	1.00407
58	0.657545	-0.276945	0.713487	57.8092	1.3173	-1.67475	1.00407
59	0.654775	-0.270215	0.708341	58.5176	1.3173	-1.67475	1.00407
60	0.652073	-0.263605	0.70334	59.2209	1.3173	-1.67475	1.00407
61	0.649437	-0.257115	0.698482	59.9194	1.3173	-1.67475	1.00407
62	0.646866	-0.250742	0.693763	60.6132	1.3173	-1.67475	1.00407
63	0.644359	-0.244485	0.689181	61.3023	1.3173	-1.67475	1.00407
64	0.641914	-0.23834	0.684733	61.9871	1.3173	-1.67475	1.00407
65	0.63953	-0.232306	0.680415	62.6675	1.3173	-1.67475	1.00407
66	0.637207	-0.22638	0.676226	63.3437	1.3173	-1.67475	1.00407
67	0.634944	-0.220562	0.672161	64.0159	1.3173	-1.67475	1.00407
68	0.632738	-0.214848	0.668219	64.6841	1.3173	-1.67475	1.00407
69	0.630589	-0.209237	0.664397	65.3485	1.3173	-1.67475	1.00407
70	0.628497	-0.203726	0.660691	66.0092	1.3173	-1.67475	1.00407
71	0.62646	-0.198315	0.6571	66.6663	1.3173	-1.67475	1.00407
72	0.624477	-0.193001	0.653621	67.3199	1.3173	-1.67475	1.00407
73	0.622547	-0.187783	0.650251	67.9702	1.3173	-1.67475	1.00407
74	0.620669	-0.182658	0.646988	68.6171	1.3173	-1.67475	1.00407
75	0.618842	-0.177625	0.643829	69.261	1.3173	-1.67475	1.00407
76	0.617066	-0.172682	0.640773	69.9017	1.3173	-1.67475	1.00407
77	0.615339	-0.167827	0.637815	70.5396	1.3173	-1.67475	1.00407
78	0.613661	-0.16306	0.634955	71.1745	1.3173	-1.67475	1.00407
79	0.61203	-0.158378	0.63219	71.8067	1.3173	-1.67475	1.00407
80	0.610447	-0.153779	0.629518	72.4362	1.3173	-1.67475	1.00407
81	0.608909	-0.149263	0.626936	73.0632	1.3173	-1.67475	1.00407
82	0.607416	-0.144827	0.624443	73.6876	1.3173	-1.67475	1.00407
83	0.605968	-0.140471	0.622036	74.3096	1.3173	-1.67475	1.00407
84	0.604563	-0.136192	0.619713	74.9293	1.3173	-1.67475	1.00407
85	0.603201	-0.131989	0.617473	75.5468	1.3173	-1.67475	1.00407
86	0.601881	-0.127861	0.615313	76.1621	1.3173	-1.67475	1.00407
87	0.600603	-0.123807	0.613231	76.7754	1.3173	-1.67475	1.00407
88	0.599365	-0.119824	0.611225	77.3866	1.3173	-1.67475	1.00407
89	0.598166	-0.115913	0.609294	77.9959	1.3173	-1.67475	1.00407
90	0.597007	-0.11207	0.607435	78.6033	1.3173	-1.67475	1.00407
91	0.595887	-0.108296	0.605647	79.209	1.3173	-1.67475	1.00407
92	0.594804	-0.104589	0.603929	79.8129	1.3173	-1.67475	1.00407
93	0.593758	-0.100947	0.602278	80.4152	1.3173	-1.67475	1.00407
94	0.592748	-0.0973699	0.600692	81.0159	1.3173	-1.67475	1.00407
95	0.591775	-0.0938558	0.599171	81.615	1.3173	-1.67475	1.00407
96	0.590836	-0.0904037	0.597712	82.2127	1.3173	-1.67475	1.00407
97	0.589932	-0.0870125	0.596314	82.8091	1.3173	-1.67475	1.00407
98	0.589062	-0.0836811	0.594976	83.404	1.3173	-1.67475	1.00407
99	0.588225	-0.0804083	0.593695	83.9977	1.3173	-1.67475	1.00407


t	x[0]	x[1]	P	theta[0]	theta[1]	theta[2]
0	0.99	-0.980069	1.39307	1.39307	1.3183	-1.67475	1.00407
1	0.980199	-0.960504	1.37235	2.76542	1.3183	-1.67475	1.00407
2	0.970594	-0.941296	1.35207	4.11749	1.3183	-1.67475	1.00407
3	0.961181	-0.92244	1.3322	5.44969	1.3183	-1.67475	1.00407
4	0.951957	-0.903929	1.31275	6.76244	1.3183	-1.67475	1.00407
5	0.942918	-0.885757	1.2937	8.05614	1.3183	-1.67475	1.00407
6	0.93406	-0.867918	1.27505	9.33119	1.3183	-1.67475	1.00407
7	0.925381	-0.850404	1.25679	10.588	1.3183	-1.67475	1.00407
8	0.916877	-0.833212	1.23891	11.8269	1.3183	-1.67475	1.00407
9	0.908545	-0.816334	1.22141	13.0483	1.3183	-1.67475	1.00407
10	0.900381	-0.799764	1.20429	14.2526	1.3183	-1.67475	1.00407
11	0.892384	-0.783498	1.18753	15.4401	1.3183	-1.67475	1.00407
12	0.884549	-0.76753	1.17112	16.6112	1.3183	-1.67475	1.00407
13	0.876873	-0.751853	1.15507	17.7663	1.3183	-1.67475	1.00407
14	0.869355	-0.736463	1.13937	18.9057	1.3183	-1.67475	1.00407
15	0.86199	-0.721355	1.124	20.0297	1.3183	-1.67475	1.00407
16	0.854777	-0.706523	1.10897	21.1387	1.3183	-1.67475	1.00407
17	0.847712	-0.691961	1.09427	22.2329	1.3183	-1.67475	1.00407
18	0.840792	-0.677667	1.07989	23.3128	1.3183	-1.67475	1.00407
19	0.834015	-0.663633	1.06583	24.3786	1.3183	-1.67475	1.00407
20	0.827379	-0.649856	1.05208	25.4307	1.3183	-1.67475	1.00407
21	0.82088	-0.636331	1.03863	26.4694	1.3183	-1.67475	1.00407
22	0.814517	-0.623052	1.02549	27.4948	1.3183	-1.67475	1.00407
23	0.808287	-0.610016	1.01264	28.5075	1.3183	-1.67475	1.00407
24	0.802186	-0.597219	1.00009	29.5076	1.3183	-1.67475	1.00407
25	0.796214	-0.584655	0.987815	30.4954	1.3183	-1.67475	1.00407
26	0.790368	-0.57232	0.975823	31.4712	1.3183	-1.67475	1.00407
27	0.784644	-0.560211	0.964107	32.4353	1.3183	-1.67475	1.00407
28	0.779042	-0.548322	0.952662	33.388	1.3183	-1.67475	1.00407
29	0.773559	-0.536651	0.941482	34.3295	1.3183	-1.67475	1.00407
30	0.768193	-0.525192	0.930563	35.26	1.3183	-1.67475	1.00407
31	0.762941	-0.513942	0.9199	36.1799	1.3183	-1.67475	1.00407
32	0.757801	-0.502898	0.909488	37.0894	1.3183	-1.67475	1.00407
33	0.752772	-0.492055	0.899324	37.9887	1.3183	-1.67475	1.00407
34	0.747852	-0.481409	0.889403	38.8781	1.3183	-1.67475	1.00407
35	0.743038	-0.470958	0.879719	39.7579	1.3183	-1.67475	1.00407
36	0.738328	-0.460697	0.87027	40.6281	1.3183	-1.67475	1.00407
37	0.733721	-0.450623	0.86105	41.4892	1.3183	-1.67475	1.00407
38	0.729215	-0.440732	0.852056	42.3412	1.3183	-1.67475	1.00407
39	0.724808	-0.431021	0.843282	43.1845	1.3183	-1.67475	1.00407
40	0.720497	-0.421487	0.834726	44.0192	1.3183	-1.67475	1.00407
41	0.716282	-0.412127	0.826383	44.8456	1.3183	-1.67475	1.00407
42	0.712161	-0.402937	0.818249	45.6639	1.3183	-1.67475	1.00407
43	0.708132	-0.393913	0.81032	46.4742	1.3183	-1.67475	1.00407
44	0.704193	-0.385054	0.802592	47.2768	1.3183	-1.67475	1.00407
45	0.700342	-0.376356	0.795062	48.0719	1.3183	-1.67475	1.00407
46	0.696579	-0.367816	0.787725	48.8596	1.3183	-1.67475	1.00407
47	0.6929	-0.359431	0.780578	49.6402	1.3183	-1.67475	1.00407
48	0.689306	-0.351199	0.773617	50.4138	1.3183	-1.67475	1.00407
49	0.685794	-0.343115	0.766839	51.1806	1.3183	-1.67475	1.00407
50	0.682363	-0.335179	0.760239	51.9409	1.3183	-1.67475	1.00407
51	0.679011	-0.327386	0.753815	52.6947	1.3183	-1.67475	1.00407
52	0.675737	-0.319734	0.747563	53.4422	1.3183	-1.67475	1.00407
53	0.67254	-0.312222	0.74148	54.1837	1.3183	-1.67475	1.00407
54	0.669418	-0.304845	0.735561	54.9193	1.3183	-1.67475	1.00407
55	0.666369	-0.297602	0.729805	55.6491	1.3183	-1.67475	1.00407
56	0.663393	-0.29049	0.724207	56.3733	1.3183	-1.67475	1.00407
57	0.660488	-0.283507	0.718764	57.092	1.3183	-1.67475	1.00407
58	0.657653	-0.27665	0.713473	57.8055	1.3183	-1.67475	1.00407
59	0.654887	-0.269917	0.70833	58.5138	1.3183	-1.67475	1.00407
60	0.652188	-0.263306	0.703334	59.2172	1.3183	-1.67475	1.00407
61	0.649555	-0.256814	0.69848	59.9157	1.3183	-1.67475	1.00407
62	0.646986	-0.250439	0.693766	60.6094	1.3183	-1.67475	1.00407
63	0.644482	-0.24418	0.689189	61.2986	1.3183	-1.67475	1.00407
64	0.64204	-0.238033	0.684745	61.9834	1.3183	-1.67475	1.00407
65	0.63966	-0.231997	0.680432	62.6638	1.3183	-1.67475	1.00407
66	0.63734	-0.22607	0.676247	63.34	1.3183	-1.67475	1.00407
67	0.635079	-0.22025	0.672187	64.0122	1.3183	-1.67475	1.00407
68	0.632877	-0.214535	0.66825	64.6805	1.3183	-1.67475	1.00407
69	0.630731	-0.208922	0.664432	65.3449	1.3183	-1.67475	1.00407
70	0.628642	-0.20341	0.660732	66.0056	1.3183	-1.67475	1.00407
71	0.626608	-0.197998	0.657146	66.6628	1.3183	-1.67475	1.00407
72	0.624628	-0.192682	0.653672	67.3165	1.3183	-1.67475	1.00407
73	0.622701	-0.187462	0.650307	67.9668	1.3183	-1.67475	1.00407
74	0.620827	-0.182336	0.647049	68.6138	1.3183	-1.67475	1.00407
75	0.619003	-0.177302	0.643895	69.2577	1.3183	-1.67475	1.00407
76	0.61723	-0.172358	0.640843	69.8986	1.3183	-1.67475	1.00407
77	0.615507	-0.167502	0.637891	70.5364	1.3183	-1.67475	1.00407
78	0.613832	-0.162733	0.635037	71.1715	1.3183	-1.67475	1.00407
79	0.612204	-0.15805	0.632277	71.8038	1.3183	-1.67475	1.00407
80	0.610624	-0.15345	0.62961	72.4334	1.3183	-1.67475	1.00407
81	0.609089	-0.148933	0.627033	73.0604	1.3183	-1.67475	1.00407
82	0.6076	-0.144496	0.624545	73.6849	1.3183	-1.67475	1.00407
83	0.606155	-0.140138	0.622144	74.3071	1.3183	-1.67475	1.00407
84	0.604754	-0.135858	0.619826	74.9269	1.3183	-1.67475	1.00407
85	0.603395	-0.131655	0.617591	75.5445	1.3183	-1.67475	1.00407
86	0.602079	-0.127526	0.615436	76.1599	1.3183	-1.67475	1.00407
87	0.600803	-0.12347	0.613359	76.7733	1.3183	-1.67475	1.00407
88	0.599569	-0.119487	0.611359	77.3847	1.3183	-1.67475	1.00407
89	0.598374	-0.115574	0.609433	77.9941	1.3183	-1.67475	1.00407
90	0.597218	-0.111731	0.60758	78.6017	1.3183	-1.67475	1.00407
91	0.596101	-0.107956	0.605797	79.2075	1.3183	-1.67475	1.00407
92	0.595021	-0.104247	0.604084	79.8116	1.3183	-1.67475	1.00407
93	0.593979	-0.100605	0.602438	80.414	1.3183	-1.67475	1.00407
94	0.592973	-0.0970267	0.600858	81.0149	1.3183	-1.67475	1.00407
95	0.592002	-0.0935117	0.599342	81.6142	1.3183	-1.67475	1.00407
96	0.591067	-0.0900588	0.597889	82.2121	1.3183	-1.67475	1.00407
97	0.590167	-0.0866667	0.596496	82.8086	1.3183	-1.67475	1.00407
98	0.5893	-0.0833345	0.595163	83.4037	1.3183	-1.67475	1.00407
99	0.588467	-0.0800608	0.593888	83.9976	1.3183	-1.67475	1.00407


t	x[0]	x[1]	P	theta[0]	theta[1]	theta[2]
0	0.99	-0.980089	1.39308	1.39308	1.3173	-1.67375	1.00407
1	0.980199	-0.960543	1.37238	2.76546	1.3173	-1.67375	1.00407
2	0.970594	-0.941354	1.35211	4.11757	1.3173	-1.67375	1.00407
3	0.96118	-0.922516	1.33226	5.44983	1.3173	-1.67375	1.00407
4	0.951955	-0.904023	1.31281	6.76264	1.3173	-1.67375	1.00407
5	0.942915	-0.885868	1.29377	8.05641	1.3173	-1.67375	1.00407
6	0.934056	-0.868045	1.27513	9.33155	1.3173	-1.67375	1.00407
7	0.925376	-0.850548	1.25688	10.5884	1.3173	-1.67375	1.00407
8	0.91687	-0.83337	1.23901	11.8274	1.3173	-1.67375	1.00407
9	0.908536	-0.816507	1.22152	13.049	1.3173	-1.67375	1.00407
10	0.900371	-0.799952	1.20441	14.2534	1.3173	-1.67375	1.00407
11	0.892372	-0.7837	1.18765	15.441	1.3173	-1.67375	1.00407
12	0.884535	-0.767745	1.17125	16.6123	1.3173	-1.67375	1.00407
13	0.876857	-0.752081	1.15521	17.7675	1.3173	-1.67375	1.00407
14	0.869337	-0.736704	1.13951	18.907	1.3173	-1.67375	1.00407
15	0.86197	-0.721607	1.12415	20.0311	1.3173	-1.67375	1.00407
16	0.854753	-0.706787	1.10912	21.1403	1.3173	-1.67375	1.00407
17	0.847686	-0.692237	1.09442	22.2347	1.3173	-1.67375	1.00407
18	0.840763	-0.677953	1.08005	23.3147	1.3173	-1.67375	1.00407
19	0.833984	-0.66393	1.06599	24.3807	1.3173	-1.67375	1.00407
20	0.827344	-0.650163	1.05224	25.433	1.3173	-1.67375	1.00407
21	0.820843	-0.636647	1.0388	26.4718	1.3173	-1.67375	1.00407
22	0.814476	-0.623378	1.02566	27.4974	1.3173	-1.67375	1.00407
23	0.808243	-0.610352	1.01281	28.5102	1.3173	-1.67375	1.00407
24	0.802139	-0.597563	1.00025	29.5105	1.3173	-1.67375	1.00407
25	0.796163	-0.585007	0.987982	30.4985	1.3173	-1.67375	1.00407
26	0.790313	-0.572681	0.975991	31.4745	1.3173	-1.67375	1.00407
27	0.784586	-0.560579	0.964274	32.4387	1.3173	-1.67375	1.00407
28	0.778981	-0.548698	0.952827	33.3916	1.3173	-1.67375	1.00407
29	0.773494	-0.537033	0.941646	34.3332	1.3173	-1.67375	1.00407
30	0.768123	-0.525582	0.930725	35.2639	1.3173	-1.67375	1.00407
31	0.762868	-0.514339	0.92006	36.184	1.3173	-1.67375	1.00407
32	0.757724	-0.503301	0.909647	37.0936	1.3173	-1.67375	1.00407
33	0.752691	-0.492464	0.89948	37.9931	1.3173	-1.67375	1.00407
34	0.747767	-0.481824	0.889556	38.8827	1.3173	-1.67375	1.00407
35	0.742948	-0.471378	0.879869	39.7625	1.3173	-1.67375	1.00407
36	0.738235	-0.461122	0.870416	40.633	1.3173	-1.67375	1.00407
37	0.733623	-0.451053	0.861192	41.4941	1.3173	-1.67375	1.00407
38	0.729113	-0.441168	0.852194	42.3463	1.3173	-1.67375	1.00407
39	0.724701	-0.431462	0.843416	43.1898	1.3173	-1.67375	1.00407
40	0.720386	-0.421932	0.834855	44.0246	1.3173	-1.67375	1.00407
41	0.716167	-0.412576	0.826507	44.8511	1.3173	-1.67375	1.00407
42	0.712041	-0.40339	0.818368	45.6695	1.3173	-1.67375	1.00407
43	0.708008	-0.394371	0.810434	46.4799	1.3173	-1.67375	1.00407
44	0.704064	-0.385515	0.8027	47.2826	1.3173	-1.67375	1.00407
45	0.700209	-0.376821	0.795164	48.0778	1.3173	-1.67375	1.00407
46	0.69644	-0.368284	0.787821	48.8656	1.3173	-1.67375	1.00407
47	0.692758	-0.359902	0.780668	49.6463	1.3173	-1.67375	1.00407
48	0.689159	-0.351673	0.773701	50.42	1.3173	-1.67375	1.00407
49	0.685642	-0.343592	0.766916	51.1869	1.3173	-1.67375	1.00407
50	0.682206	-0.335659	0.76031	51.9472	1.3173	-1.67375	1.00407
51	0.678849	-0.327868	0.753879	52.7011	1.3173	-1.67375	1.00407
52	0.675571	-0.32022	0.74762	53.4487	1.3173	-1.67375	1.00407
53	0.672368	-0.312709	0.74153	54.1902	1.3173	-1.67375	1.00407
54	0.669241	-0.305335	0.735604	54.9258	1.3173	-1.67375	1.00407
55	0.666188	-0.298094	0.72984	55.6557	1.3173	-1.67375	1.00407
56	0.663207	-0.290984	0.724234	56.3799	1.3173	-1.67375	1.00407
57	0.660297	-0.284003	0.718784	57.0987	1.3173	-1.67375	1.00407
58	0.657457	-0.277147	0.713485	57.8122	1.3173	-1.67375	1.00407
59	0.654686	-0.270416	0.708335	58.5205	1.3173	-1.67375	1.00407
60	0.651982	-0.263806	0.70333	59.2238	1.3173	-1.67375	1.00407
61	0.649344	-0.257316	0.698469	59.9223	1.3173	-1.67375	1.00407
62	0.64677	-0.250943	0.693746	60.6161	1.3173	-1.67375	1.00407
63	0.644261	-0.244684	0.689161	61.3052	1.3173	-1.67375	1.00407
64	0.641814	-0.238539	0.684709	61.9899	1.3173	-1.67375	1.00407
65	0.639429	-0.232504	0.680388	62.6703	1.3173	-1.67375	1.00407
66	0.637104	-0.226578	0.676194	63.3465	1.3173	-1.67375	1.00407
67	0.634838	-0.220759	0.672126	64.0186	1.3173	-1.67375	1.00407
68	0.63263	-0.215044	0.66818	64.6868	1.3173	-1.67375	1.00407
69	0.63048	-0.209432	0.664354	65.3512	1.3173	-1.67375	1.00407
70	0.628386	-0.203921	0.660645	66.0118	1.3173	-1.67375	1.00407
71	0.626346	-0.198509	0.657051	66.6689	1.3173	-1.67375	1.00407
72	0.624361	-0.193194	0.653568	67.3224	1.3173	-1.67375	1.00407
73	0.622429	-0.187974	0.650194	67.9726	1.3173	-1.67375	1.00407
74	0.62055	-0.182849	0.646928	68.6196	1.3173	-1.67375	1.00407
75	0.618721	-0.177815	0.643765	69.2633	1.3173	-1.67375	1.00407
76	0.616943	-0.172871	0.640705	69.904	1.3173	-1.67375	1.00407
77	0.615214	-0.168015	0.637744	70.5418	1.3173	-1.67375	1.00407
78	0.613534	-0.163247	0.634881	71.1767	1.3173	-1.67375	1.00407
79	0.611902	-0.158564	0.632112	71.8088	1.3173	-1.67375	1.00407
80	0.610316	-0.153964	0.629437	72.4382	1.3173	-1.67375	1.00407
81	0.608776	-0.149446	0.626852	73.0651	1.3173	-1.67375	1.00407
82	0.607282	-0.14501	0.624355	73.6894	1.3173	-1.67375	1.00407
83	0.605832	-0.140652	0.621945	74.3114	1.3173	-1.67375	1.00407
84	0.604425	-0.136372	0.619619	74.931	1.3173	-1.67375	1.00407
85	0.603062	-0.132168	0.617375	75.5483	1.3173	-1.67375	1.00407
86	0.60174	-0.128039	0.615211	76.1636	1.3173	-1.67375	1.00407
87	0.600459	-0.123983	0.613126	76.7767	1.3173	-1.67375	1.00407
88	0.59922	-0.119999	0.611117	77.3878	1.3173	-1.67375	1.00407
89	0.59802	-0.116086	0.609183	77.997	1.3173	-1.67375	1.00407
90	0.596859	-0.112243	0.607321	78.6043	1.3173	-1.67375	1.00407
91	0.595736	-0.108467	0.60553	79.2098	1.3173	-1.67375	1.00407
92	0.594652	-0.104759	0.603809	79.8136	1.3173	-1.67375	1.00407
93	0.593604	-0.101116	0.602155	80.4158	1.3173	-1.67375	1.00407
94	0.592593	-0.097537	0.600566	81.0164	1.3173	-1.67375	1.00407
95	0.591618	-0.0940216	0.599042	81.6154	1.3173	-1.67375	1.00407
96	0.590677	-0.0905681	0.59758	82.213	1.3173	-1.67375	1.00407
97	0.589772	-0.0871756	0.59618	82.8092	1.3173	-1.67375	1.00407
98	0.5889	-0.0838428	0.594838	83.404	1.3173	-1.67375	1.00407
99	0.588061	-0.0805687	0.593555	83.9976	1.3173	-1.67375	1.00407


t	x[0]	x[1]	P	theta[0]	theta[1]	theta[2]
0	0.99	-0.980079	1.39307	1.39307	1.3173	-1.67475	1.00507
1	0.980199	-0.960523	1.37237	2.76544	1.3173	-1.67475	1.00507
2	0.970594	-0.941325	1.35209	4.11753	1.3173	-1.67475	1.00507
3	0.961181	-0.922477	1.33223	5.44976	1.3173	-1.67475	1.00507
4	0.951956	-0.903975	1.31278	6.76254	1.3173	-1.67475	1.00507
5	0.942916	-0.885811	1.29374	8.05628	1.3173	-1.67475	1.00507
6	0.934058	-0.867979	1.27509	9.33136	1.3173	-1.67475	1.00507
7	0.925378	-0.850473	1.25683	10.5882	1.3173	-1.67475	1.00507
8	0.916874	-0.833287	1.23896	11.8272	1.3173	-1.67475	1.00507
9	0.908541	-0.816415	1.22147	13.0486	1.3173	-1.67475	1.00507
10	0.900377	-0.799852	1.20434	14.253	1.3173	-1.67475	1.00507
11	0.892378	-0.783592	1.18758	15.4406	1.3173	-1.67475	1.00507
12	0.884542	-0.767629	1.17118	16.6117	1.3173	-1.67475	1.00507
13	0.876866	-0.751958	1.15513	17.7669	1.3173	-1.67475	1.00507
14	0.869346	-0.736574	1.13943	18.9063	1.3173	-1.67475	1.00507
15	0.86198	-0.72147	1.12407	20.0304	1.3173	-1.67475	1.00507
16	0.854766	-0.706643	1.10904	21.1394	1.3173	-1.67475	1.00507
17	0.847699	-0.692087	1.09434	22.2337	1.3173	-1.67475	1.00507
