
Current theta : [ -3.84196 , 2.83657 ] 


t	x[0]	x[1]	P	theta[0]	theta[1]	theta[2]
0	0.999	0.145583	1.00955	1.00955	-3.84196	2.83657	0
1	0.997544	0.189822	1.01544	2.025	-3.84196	2.83657	0
2	0.995646	0.232729	1.02248	3.04748	-3.84196	2.83657	0
3	0.993319	0.274316	1.0305	4.07798	-3.84196	2.83657	0
4	0.990576	0.314594	1.03933	5.11731	-3.84196	2.83657	0
5	0.98743	0.353574	1.04882	6.16614	-3.84196	2.83657	0
6	0.983894	0.391268	1.05884	7.22497	-3.84196	2.83657	0
7	0.979981	0.427684	1.06924	8.29421	-3.84196	2.83657	0
8	0.975704	0.462833	1.07991	9.37413	-3.84196	2.83657	0
9	0.971076	0.496725	1.09074	10.4649	-3.84196	2.83657	0
10	0.966109	0.529371	1.10164	11.5665	-3.84196	2.83657	0
11	0.960815	0.560781	1.11249	12.679	-3.84196	2.83657	0
12	0.955207	0.590965	1.12324	13.8022	-3.84196	2.83657	0
13	0.949298	0.619935	1.13379	14.936	-3.84196	2.83657	0
14	0.943098	0.647702	1.14409	16.0801	-3.84196	2.83657	0
15	0.936621	0.674278	1.15408	17.2342	-3.84196	2.83657	0
16	0.929878	0.699675	1.16371	18.3979	-3.84196	2.83657	0
17	0.922882	0.723906	1.17292	19.5708	-3.84196	2.83657	0
18	0.915643	0.746984	1.18169	20.7525	-3.84196	2.83657	0
19	0.908173	0.768923	1.18997	21.9425	-3.84196	2.83657	0
20	0.900484	0.789738	1.19773	23.1402	-3.84196	2.83657	0
21	0.892586	0.809444	1.20495	24.3452	-3.84196	2.83657	0
22	0.884492	0.828056	1.21161	25.5568	-3.84196	2.83657	0
23	0.876211	0.845592	1.21769	26.7745	-3.84196	2.83657	0
24	0.867755	0.862068	1.22318	27.9977	-3.84196	2.83657	0
25	0.859135	0.877502	1.22806	29.2257	-3.84196	2.83657	0
26	0.85036	0.891912	1.23232	30.458	-3.84196	2.83657	0
27	0.84144	0.905316	1.23597	31.694	-3.84196	2.83657	0
28	0.832387	0.917735	1.23899	32.933	-3.84196	2.83657	0
29	0.82321	0.929188	1.2414	34.1744	-3.84196	2.83657	0
30	0.813918	0.939696	1.24318	35.4176	-3.84196	2.83657	0
31	0.804521	0.949278	1.24434	36.6619	-3.84196	2.83657	0
32	0.795028	0.957957	1.24489	37.9068	-3.84196	2.83657	0
33	0.785449	0.965754	1.24483	39.1516	-3.84196	2.83657	0
34	0.775791	0.972692	1.24418	40.3958	-3.84196	2.83657	0
35	0.766064	0.978791	1.24293	41.6388	-3.84196	2.83657	0
36	0.756276	0.984076	1.24111	42.8799	-3.84196	2.83657	0
37	0.746436	0.988568	1.23872	44.1186	-3.84196	2.83657	0
38	0.73655	0.992291	1.23578	45.3544	-3.84196	2.83657	0
39	0.726627	0.995267	1.23229	46.5867	-3.84196	2.83657	0
40	0.716674	0.997521	1.22828	47.8149	-3.84196	2.83657	0
41	0.706699	0.999075	1.22375	49.0387	-3.84196	2.83657	0
42	0.696708	0.999952	1.21873	50.2574	-3.84196	2.83657	0
43	0.686709	1.00018	1.21323	51.4706	-3.84196	2.83657	0
44	0.676707	0.999771	1.20726	52.6779	-3.84196	2.83657	0
45	0.666709	0.998758	1.20084	53.8787	-3.84196	2.83657	0
46	0.656722	0.997161	1.19399	55.0727	-3.84196	2.83657	0
47	0.64675	0.995003	1.18673	56.2595	-3.84196	2.83657	0
48	0.6368	0.992306	1.17906	57.4385	-3.84196	2.83657	0
49	0.626877	0.989093	1.17102	58.6095	-3.84196	2.83657	0
50	0.616986	0.985386	1.16261	59.7722	-3.84196	2.83657	0
51	0.607132	0.981206	1.15385	60.926	-3.84196	2.83657	0
52	0.59732	0.976575	1.14477	62.0708	-3.84196	2.83657	0
53	0.587554	0.971515	1.13537	63.2061	-3.84196	2.83657	0
54	0.577839	0.966045	1.12567	64.3318	-3.84196	2.83657	0
55	0.568179	0.960186	1.1157	65.4475	-3.84196	2.83657	0
56	0.558577	0.953959	1.10546	66.553	-3.84196	2.83657	0
57	0.549037	0.947382	1.09498	67.6479	-3.84196	2.83657	0
58	0.539564	0.940475	1.08426	68.7322	-3.84196	2.83657	0
59	0.530159	0.933256	1.07333	69.8055	-3.84196	2.83657	0
60	0.520826	0.925744	1.0622	70.8677	-3.84196	2.83657	0
61	0.511569	0.917957	1.05088	71.9186	-3.84196	2.83657	0
62	0.502389	0.909911	1.03939	72.958	-3.84196	2.83657	0
63	0.49329	0.901624	1.02775	73.9858	-3.84196	2.83657	0
64	0.484274	0.893111	1.01596	75.0017	-3.84196	2.83657	0
65	0.475343	0.884389	1.00404	76.0057	-3.84196	2.83657	0
66	0.466499	0.875473	0.992005	76.9978	-3.84196	2.83657	0
67	0.457744	0.866378	0.979867	77.9776	-3.84196	2.83657	0
68	0.44908	0.857117	0.967638	78.9453	-3.84196	2.83657	0
69	0.440509	0.847706	0.95533	79.9006	-3.84196	2.83657	0
70	0.432032	0.838158	0.942953	80.8435	-3.84196	2.83657	0
71	0.423651	0.828484	0.930519	81.7741	-3.84196	2.83657	0
72	0.415366	0.818699	0.91804	82.6921	-3.84196	2.83657	0
73	0.407179	0.808813	0.905524	83.5976	-3.84196	2.83657	0
74	0.399091	0.798839	0.892982	84.4906	-3.84196	2.83657	0
75	0.391102	0.788787	0.880424	85.371	-3.84196	2.83657	0
76	0.383214	0.778668	0.867858	86.2389	-3.84196	2.83657	0
77	0.375428	0.768493	0.855293	87.0942	-3.84196	2.83657	0
78	0.367743	0.75827	0.842738	87.9369	-3.84196	2.83657	0
79	0.36016	0.74801	0.830201	88.7671	-3.84196	2.83657	0
80	0.35268	0.737721	0.817689	89.5848	-3.84196	2.83657	0
81	0.345303	0.727412	0.805209	90.39	-3.84196	2.83657	0
82	0.338029	0.717091	0.792769	91.1828	-3.84196	2.83657	0
83	0.330858	0.706766	0.780375	91.9632	-3.84196	2.83657	0
84	0.32379	0.696444	0.768033	92.7312	-3.84196	2.83657	0
85	0.316826	0.686132	0.755749	93.4869	-3.84196	2.83657	0
86	0.309964	0.675837	0.743528	94.2305	-3.84196	2.83657	0
87	0.303206	0.665566	0.731377	94.9618	-3.84196	2.83657	0
88	0.29655	0.655324	0.7193	95.6811	-3.84196	2.83657	0
89	0.289997	0.645117	0.707301	96.3884	-3.84196	2.83657	0
90	0.283546	0.634951	0.695386	97.0838	-3.84196	2.83657	0
91	0.277196	0.62483	0.683557	97.7674	-3.84196	2.83657	0
92	0.270948	0.61476	0.67182	98.4392	-3.84196	2.83657	0
93	0.2648	0.604745	0.660178	99.0994	-3.84196	2.83657	0
94	0.258753	0.594789	0.648635	99.748	-3.84196	2.83657	0
95	0.252805	0.584896	0.637192	100.385	-3.84196	2.83657	0
96	0.246956	0.575071	0.625854	101.011	-3.84196	2.83657	0
97	0.241205	0.565316	0.614624	101.626	-3.84196	2.83657	0
98	0.235552	0.555635	0.603503	102.229	-3.84196	2.83657	0
99	0.229996	0.546032	0.592494	102.822	-3.84196	2.83657	0
100	0.224536	0.536508	0.581599	103.403	-3.84196	2.83657	0
101	0.219171	0.527067	0.57082	103.974	-3.84196	2.83657	0
102	0.2139	0.517711	0.560158	104.534	-3.84196	2.83657	0
103	0.208723	0.508442	0.549617	105.084	-3.84196	2.83657	0
104	0.203638	0.499263	0.539196	105.623	-3.84196	2.83657	0
105	0.198646	0.490176	0.528897	106.152	-3.84196	2.83657	0
106	0.193744	0.481181	0.518722	106.671	-3.84196	2.83657	0
107	0.188932	0.472282	0.508671	107.179	-3.84196	2.83657	0
108	0.184209	0.463479	0.498745	107.678	-3.84196	2.83657	0
109	0.179575	0.454774	0.488944	108.167	-3.84196	2.83657	0
110	0.175027	0.446168	0.479271	108.646	-3.84196	2.83657	0
111	0.170565	0.437662	0.469724	109.116	-3.84196	2.83657	0
112	0.166188	0.429257	0.460304	109.576	-3.84196	2.83657	0
113	0.161896	0.420953	0.451012	110.027	-3.84196	2.83657	0
114	0.157686	0.412752	0.441848	110.469	-3.84196	2.83657	0
115	0.153559	0.404654	0.432811	110.902	-3.84196	2.83657	0
116	0.149512	0.39666	0.423903	111.326	-3.84196	2.83657	0
117	0.145546	0.38877	0.415121	111.741	-3.84196	2.83657	0
118	0.141658	0.380984	0.406468	112.148	-3.84196	2.83657	0
119	0.137848	0.373303	0.397941	112.545	-3.84196	2.83657	0
120	0.134115	0.365726	0.389542	112.935	-3.84196	2.83657	0
121	0.130458	0.358255	0.381268	113.316	-3.84196	2.83657	0
122	0.126875	0.350888	0.373121	113.689	-3.84196	2.83657	0
123	0.123366	0.343625	0.365099	114.054	-3.84196	2.83657	0
124	0.11993	0.336468	0.357203	114.412	-3.84196	2.83657	0
125	0.116566	0.329414	0.34943	114.761	-3.84196	2.83657	0
126	0.113271	0.322465	0.34178	115.103	-3.84196	2.83657	0
127	0.110047	0.315619	0.334254	115.437	-3.84196	2.83657	0
128	0.106891	0.308877	0.326849	115.764	-3.84196	2.83657	0
129	0.103802	0.302237	0.319566	116.084	-3.84196	2.83657	0
130	0.100779	0.2957	0.312402	116.396	-3.84196	2.83657	0
131	0.0978224	0.289265	0.305358	116.701	-3.84196	2.83657	0
132	0.0949298	0.282932	0.298432	117	-3.84196	2.83657	0
133	0.0921004	0.276699	0.291624	117.291	-3.84196	2.83657	0
134	0.0893335	0.270566	0.284932	117.576	-3.84196	2.83657	0
135	0.0866278	0.264532	0.278356	117.855	-3.84196	2.83657	0
136	0.0839825	0.258598	0.271893	118.127	-3.84196	2.83657	0
137	0.0813965	0.252761	0.265544	118.392	-3.84196	2.83657	0
138	0.0788689	0.247022	0.259307	118.651	-3.84196	2.83657	0
139	0.0763987	0.241379	0.253181	118.905	-3.84196	2.83657	0
140	0.0739849	0.235831	0.247164	119.152	-3.84196	2.83657	0
141	0.0716266	0.230379	0.241257	119.393	-3.84196	2.83657	0
142	0.0693228	0.22502	0.235456	119.628	-3.84196	2.83657	0
143	0.0670726	0.219754	0.229762	119.858	-3.84196	2.83657	0
144	0.064875	0.214581	0.224173	120.082	-3.84196	2.83657	0
145	0.0627292	0.209498	0.218688	120.301	-3.84196	2.83657	0
146	0.0606342	0.204506	0.213306	120.514	-3.84196	2.83657	0
147	0.0585892	0.199604	0.208025	120.722	-3.84196	2.83657	0
148	0.0565931	0.19479	0.202844	120.925	-3.84196	2.83657	0
149	0.0546452	0.190063	0.197762	121.123	-3.84196	2.83657	0
150	0.0527446	0.185422	0.192778	121.316	-3.84196	2.83657	0
151	0.0508904	0.180868	0.187891	121.504	-3.84196	2.83657	0
152	0.0490817	0.176397	0.183098	121.687	-3.84196	2.83657	0
153	0.0473177	0.17201	0.1784	121.865	-3.84196	2.83657	0
154	0.0455976	0.167706	0.173794	122.039	-3.84196	2.83657	0
155	0.0439206	0.163483	0.16928	122.208	-3.84196	2.83657	0
156	0.0422857	0.159341	0.164856	122.373	-3.84196	2.83657	0
157	0.0406923	0.155278	0.160521	122.534	-3.84196	2.83657	0
158	0.0391396	0.151293	0.156274	122.69	-3.84196	2.83657	0
159	0.0376266	0.147386	0.152113	122.842	-3.84196	2.83657	0
160	0.0361528	0.143556	0.148038	122.99	-3.84196	2.83657	0
161	0.0347172	0.139801	0.144047	123.134	-3.84196	2.83657	0
162	0.0333192	0.13612	0.140138	123.274	-3.84196	2.83657	0
163	0.031958	0.132512	0.136311	123.411	-3.84196	2.83657	0
164	0.0306329	0.128977	0.132565	123.543	-3.84196	2.83657	0
165	0.0293431	0.125513	0.128897	123.672	-3.84196	2.83657	0
166	0.028088	0.12212	0.125308	123.797	-3.84196	2.83657	0
167	0.0268668	0.118795	0.121796	123.919	-3.84196	2.83657	0
168	0.0256788	0.115539	0.118359	124.038	-3.84196	2.83657	0
169	0.0245234	0.112351	0.114996	124.153	-3.84196	2.83657	0
170	0.0233999	0.109228	0.111707	124.264	-3.84196	2.83657	0
171	0.0223076	0.106171	0.10849	124.373	-3.84196	2.83657	0
172	0.0212459	0.103179	0.105343	124.478	-3.84196	2.83657	0
173	0.0202141	0.100249	0.102267	124.58	-3.84196	2.83657	0
174	0.0192117	0.0973824	0.0992593	124.68	-3.84196	2.83657	0
175	0.0182378	0.0945768	0.0963192	124.776	-3.84196	2.83657	0
176	0.0172921	0.0918317	0.0934456	124.869	-3.84196	2.83657	0
177	0.0163737	0.089146	0.0906373	124.96	-3.84196	2.83657	0
178	0.0154823	0.0865189	0.0878933	125.048	-3.84196	2.83657	0
179	0.0146171	0.0839494	0.0852125	125.133	-3.84196	2.83657	0
180	0.0137776	0.0814366	0.0825938	125.216	-3.84196	2.83657	0
181	0.0129632	0.0789795	0.0800363	125.296	-3.84196	2.83657	0
182	0.0121734	0.0765772	0.0775387	125.373	-3.84196	2.83657	0
183	0.0114077	0.0742288	0.0751002	125.448	-3.84196	2.83657	0
184	0.0106654	0.0719334	0.0727197	125.521	-3.84196	2.83657	0
185	0.00994605	0.0696901	0.0703963	125.591	-3.84196	2.83657	0
186	0.00924915	0.067498	0.0681288	125.66	-3.84196	2.83657	0
187	0.00857417	0.0653563	0.0659164	125.726	-3.84196	2.83657	0
188	0.0079206	0.0632641	0.063758	125.789	-3.84196	2.83657	0
189	0.00728796	0.0612205	0.0616527	125.851	-3.84196	2.83657	0
190	0.00667576	0.0592246	0.0595997	125.911	-3.84196	2.83657	0
191	0.00608351	0.0572757	0.0575978	125.968	-3.84196	2.83657	0
192	0.00551075	0.0553728	0.0556464	126.024	-3.84196	2.83657	0
193	0.00495703	0.0535153	0.0537443	126.078	-3.84196	2.83657	0
194	0.00442187	0.0517021	0.0518909	126.129	-3.84196	2.83657	0
195	0.00390485	0.0499327	0.0500851	126.179	-3.84196	2.83657	0
196	0.00340552	0.048206	0.0483262	126.228	-3.84196	2.83657	0
197	0.00292346	0.0465215	0.0466132	126.274	-3.84196	2.83657	0
198	0.00245825	0.0448782	0.0449455	126.319	-3.84196	2.83657	0
199	0.00200947	0.0432754	0.0433221	126.363	-3.84196	2.83657	0
200	0.00157671	0.0417124	0.0417422	126.404	-3.84196	2.83657	0
201	0.00115959	0.0401885	0.0402052	126.445	-3.84196	2.83657	0
202	0.000757704	0.0387027	0.0387102	126.483	-3.84196	2.83657	0
203	0.000370677	0.0372546	0.0372564	126.521	-3.84196	2.83657	0
204	-1.86904e-06	0.0358432	0.0358432	126.556	-3.84196	2.83657	0
205	-0.000360301	0.034468	0.0344699	126.591	-3.84196	2.83657	0
206	-0.000704981	0.0331281	0.0331356	126.624	-3.84196	2.83657	0
207	-0.00103626	0.031823	0.0318399	126.656	-3.84196	2.83657	0
208	-0.00135449	0.0305519	0.0305819	126.686	-3.84196	2.83657	0
209	-0.00166001	0.0293142	0.0293612	126.716	-3.84196	2.83657	0
210	-0.00195315	0.0281092	0.0281769	126.744	-3.84196	2.83657	0
211	-0.00223425	0.0269362	0.0270287	126.771	-3.84196	2.83657	0
212	-0.00250361	0.0257946	0.0259158	126.797	-3.84196	2.83657	0
213	-0.00276155	0.0246837	0.0248377	126.822	-3.84196	2.83657	0
214	-0.00300839	0.023603	0.0237939	126.846	-3.84196	2.83657	0
215	-0.00324442	0.0225518	0.022784	126.868	-3.84196	2.83657	0
216	-0.00346994	0.0215295	0.0218073	126.89	-3.84196	2.83657	0
217	-0.00368523	0.0205355	0.0208635	126.911	-3.84196	2.83657	0
218	-0.00389059	0.0195692	0.0199522	126.931	-3.84196	2.83657	0
219	-0.00408628	0.01863	0.0190729	126.95	-3.84196	2.83657	0
220	-0.00427258	0.0177174	0.0182253	126.968	-3.84196	2.83657	0
221	-0.00444975	0.0168308	0.0174091	126.986	-3.84196	2.83657	0
222	-0.00461806	0.0159696	0.0166239	127.002	-3.84196	2.83657	0
223	-0.00477776	0.0151333	0.0158696	127.018	-3.84196	2.83657	0
224	-0.00492909	0.0143214	0.0151459	127.033	-3.84196	2.83657	0
225	-0.00507231	0.0135333	0.0144526	127.048	-3.84196	2.83657	0
226	-0.00520764	0.0127685	0.0137896	127.062	-3.84196	2.83657	0
227	-0.00533532	0.0120265	0.0131568	127.075	-3.84196	2.83657	0
228	-0.00545559	0.0113067	0.0125541	127.087	-3.84196	2.83657	0
229	-0.00556865	0.0106088	0.0119815	127.099	-3.84196	2.83657	0
230	-0.00567474	0.00993213	0.011439	127.111	-3.84196	2.83657	0
231	-0.00577406	0.00927631	0.0109266	127.122	-3.84196	2.83657	0
232	-0.00586683	0.00864084	0.0104443	127.132	-3.84196	2.83657	0
233	-0.00595323	0.00802527	0.00999229	127.142	-3.84196	2.83657	0
234	-0.00603349	0.00742912	0.00957052	127.152	-3.84196	2.83657	0
235	-0.00610778	0.00685196	0.00917901	127.161	-3.84196	2.83657	0
236	-0.0061763	0.00629335	0.00881776	127.17	-3.84196	2.83657	0
237	-0.00623923	0.00575285	0.00848665	127.178	-3.84196	2.83657	0
238	-0.00629676	0.00523003	0.0081855	127.186	-3.84196	2.83657	0
239	-0.00634906	0.0047245	0.007914	127.194	-3.84196	2.83657	0
240	-0.00639631	0.00423582	0.00767169	127.202	-3.84196	2.83657	0
241	-0.00643866	0.00376361	0.00745796	127.209	-3.84196	2.83657	0
242	-0.0064763	0.00330746	0.00727198	127.217	-3.84196	2.83657	0
243	-0.00650937	0.00286698	0.00711277	127.224	-3.84196	2.83657	0
244	-0.00653804	0.00244181	0.00697914	127.231	-3.84196	2.83657	0
245	-0.00656246	0.00203156	0.00686973	127.238	-3.84196	2.83657	0
246	-0.00658278	0.00163587	0.006783	127.244	-3.84196	2.83657	0
247	-0.00659914	0.00125437	0.00671729	127.251	-3.84196	2.83657	0
248	-0.00661168	0.00088672	0.00667088	127.258	-3.84196	2.83657	0
249	-0.00662055	0.000532566	0.00664193	127.264	-3.84196	2.83657	0
250	-0.00662587	0.00019157	0.00662864	127.271	-3.84196	2.83657	0
251	-0.00662779	-0.000136602	0.0066292	127.278	-3.84196	2.83657	0
252	-0.00662642	-0.000452276	0.00664184	127.284	-3.84196	2.83657	0
253	-0.0066219	-0.000755773	0.00666489	127.291	-3.84196	2.83657	0
254	-0.00661434	-0.00104741	0.00669676	127.298	-3.84196	2.83657	0
255	-0.00660387	-0.00132749	0.00673597	127.304	-3.84196	2.83657	0
256	-0.00659059	-0.00159631	0.00678116	127.311	-3.84196	2.83657	0
257	-0.00657463	-0.00185418	0.00683109	127.318	-3.84196	2.83657	0
258	-0.00655609	-0.00210139	0.00688463	127.325	-3.84196	2.83657	0
259	-0.00653507	-0.00233821	0.00694078	127.332	-3.84196	2.83657	0
260	-0.00651169	-0.00256493	0.00699864	127.339	-3.84196	2.83657	0
261	-0.00648604	-0.00278182	0.00705743	127.346	-3.84196	2.83657	0
262	-0.00645822	-0.00298915	0.00711644	127.353	-3.84196	2.83657	0
263	-0.00642833	-0.00318717	0.00717506	127.36	-3.84196	2.83657	0
264	-0.00639646	-0.00337615	0.00723278	127.367	-3.84196	2.83657	0
265	-0.0063627	-0.00355634	0.00728913	127.375	-3.84196	2.83657	0
266	-0.00632714	-0.00372798	0.00734374	127.382	-3.84196	2.83657	0
267	-0.00628986	-0.00389131	0.00739625	127.389	-3.84196	2.83657	0
268	-0.00625094	-0.00404657	0.00744641	127.397	-3.84196	2.83657	0
269	-0.00621048	-0.00419399	0.00749397	127.404	-3.84196	2.83657	0
270	-0.00616854	-0.00433379	0.00753874	127.412	-3.84196	2.83657	0
271	-0.0061252	-0.0044662	0.00758057	127.42	-3.84196	2.83657	0
272	-0.00608054	-0.00459144	0.00761933	127.427	-3.84196	2.83657	0
273	-0.00603462	-0.0047097	0.00765493	127.435	-3.84196	2.83657	0
274	-0.00598753	-0.00482121	0.0076873	127.442	-3.84196	2.83657	0
275	-0.00593931	-0.00492615	0.00771637	127.45	-3.84196	2.83657	0
276	-0.00589005	-0.00502474	0.00774214	127.458	-3.84196	2.83657	0
277	-0.00583981	-0.00511715	0.00776457	127.466	-3.84196	2.83657	0
278	-0.00578863	-0.00520359	0.00778368	127.473	-3.84196	2.83657	0
279	-0.0057366	-0.00528424	0.00779947	127.481	-3.84196	2.83657	0
280	-0.00568376	-0.00535927	0.00781197	127.489	-3.84196	2.83657	0
281	-0.00563016	-0.00542887	0.00782121	127.497	-3.84196	2.83657	0
282	-0.00557587	-0.00549319	0.00782723	127.505	-3.84196	2.83657	0
283	-0.00552094	-0.00555243	0.00783009	127.513	-3.84196	2.83657	0
284	-0.00546542	-0.00560673	0.00782983	127.52	-3.84196	2.83657	0
285	-0.00540935	-0.00565626	0.00782651	127.528	-3.84196	2.83657	0
286	-0.00535279	-0.00570117	0.00782021	127.536	-3.84196	2.83657	0
287	-0.00529578	-0.00574162	0.00781098	127.544	-3.84196	2.83657	0
288	-0.00523836	-0.00577776	0.00779891	127.552	-3.84196	2.83657	0
289	-0.00518058	-0.00580973	0.00778405	127.559	-3.84196	2.83657	0
290	-0.00512249	-0.00583768	0.00776649	127.567	-3.84196	2.83657	0
291	-0.00506411	-0.00586175	0.00774631	127.575	-3.84196	2.83657	0
292	-0.00500549	-0.00588206	0.00772357	127.583	-3.84196	2.83657	0
293	-0.00494667	-0.00589875	0.00769837	127.59	-3.84196	2.83657	0
294	-0.00488768	-0.00591196	0.00767077	127.598	-3.84196	2.83657	0
295	-0.00482856	-0.00592181	0.00764086	127.606	-3.84196	2.83657	0
296	-0.00476935	-0.00592841	0.00760872	127.613	-3.84196	2.83657	0
297	-0.00471006	-0.00593189	0.00757443	127.621	-3.84196	2.83657	0
298	-0.00465074	-0.00593237	0.00753807	127.628	-3.84196	2.83657	0
299	-0.00459142	-0.00592996	0.0074997	127.636	-3.84196	2.83657	0
300	-0.00453212	-0.00592477	0.00745942	127.643	-3.84196	2.83657	0
301	-0.00447287	-0.0059169	0.0074173	127.651	-3.84196	2.83657	0
302	-0.0044137	-0.00590647	0.00737341	127.658	-3.84196	2.83657	0
303	-0.00435464	-0.00589358	0.00732783	127.665	-3.84196	2.83657	0
304	-0.0042957	-0.00587832	0.00728064	127.673	-3.84196	2.83657	0
305	-0.00423692	-0.00586079	0.0072319	127.68	-3.84196	2.83657	0
306	-0.00417831	-0.00584109	0.00718168	127.687	-3.84196	2.83657	0
307	-0.0041199	-0.0058193	0.00713007	127.694	-3.84196	2.83657	0
308	-0.00406171	-0.00579552	0.00707712	127.701	-3.84196	2.83657	0
309	-0.00400375	-0.00576984	0.0070229	127.708	-3.84196	2.83657	0
310	-0.00394605	-0.00574234	0.00696748	127.715	-3.84196	2.83657	0
311	-0.00388863	-0.0057131	0.00691093	127.722	-3.84196	2.83657	0
312	-0.0038315	-0.0056822	0.0068533	127.729	-3.84196	2.83657	0
313	-0.00377468	-0.00564971	0.00679466	127.736	-3.84196	2.83657	0
314	-0.00371818	-0.00561573	0.00673508	127.743	-3.84196	2.83657	0
315	-0.00366202	-0.00558031	0.0066746	127.749	-3.84196	2.83657	0
316	-0.00360622	-0.00554353	0.00661329	127.756	-3.84196	2.83657	0
317	-0.00355078	-0.00550546	0.0065512	127.763	-3.84196	2.83657	0
318	-0.00349573	-0.00546617	0.00648838	127.769	-3.84196	2.83657	0
319	-0.00344107	-0.00542572	0.0064249	127.775	-3.84196	2.83657	0
320	-0.00338681	-0.00538417	0.0063608	127.782	-3.84196	2.83657	0
321	-0.00333297	-0.00534159	0.00629613	127.788	-3.84196	2.83657	0
322	-0.00327955	-0.00529804	0.00623095	127.794	-3.84196	2.83657	0
323	-0.00322657	-0.00525357	0.00616529	127.8	-3.84196	2.83657	0
324	-0.00317404	-0.00520824	0.00609921	127.807	-3.84196	2.83657	0
325	-0.00312195	-0.00516211	0.00603274	127.813	-3.84196	2.83657	0
326	-0.00307033	-0.00511523	0.00596595	127.819	-3.84196	2.83657	0
327	-0.00301918	-0.00506764	0.00589885	127.824	-3.84196	2.83657	0
328	-0.00296851	-0.00501941	0.00583151	127.83	-3.84196	2.83657	0
329	-0.00291831	-0.00497057	0.00576395	127.836	-3.84196	2.83657	0
