
Current theta : [ 1.29981 , -1.70448 , 0.994912 ] 


t	x[0]	x[1]	P	theta[0]	theta[1]	theta[2]
0	0.99	-0.979957	1.39299	1.39299	1.29981	-1.70448	0.994912
1	0.9802	-0.960287	1.3722	2.76519	1.29981	-1.70448	0.994912
2	0.970598	-0.940982	1.35185	4.11705	1.29981	-1.70448	0.994912
3	0.961188	-0.922036	1.33193	5.44897	1.29981	-1.70448	0.994912
4	0.951967	-0.903442	1.31242	6.76139	1.29981	-1.70448	0.994912
5	0.942933	-0.885193	1.29333	8.05472	1.29981	-1.70448	0.994912
6	0.934081	-0.867283	1.27463	9.32935	1.29981	-1.70448	0.994912
7	0.925408	-0.849706	1.25634	10.5857	1.29981	-1.70448	0.994912
8	0.916911	-0.832455	1.23843	11.8241	1.29981	-1.70448	0.994912
9	0.908587	-0.815523	1.2209	13.045	1.29981	-1.70448	0.994912
10	0.900431	-0.798906	1.20376	14.2488	1.29981	-1.70448	0.994912
11	0.892442	-0.782597	1.18698	15.4358	1.29981	-1.70448	0.994912
12	0.884616	-0.76659	1.17056	16.6063	1.29981	-1.70448	0.994912
13	0.87695	-0.75088	1.1545	17.7608	1.29981	-1.70448	0.994912
14	0.869442	-0.735461	1.13879	18.8996	1.29981	-1.70448	0.994912
15	0.862087	-0.720328	1.12342	20.023	1.29981	-1.70448	0.994912
16	0.854884	-0.705475	1.10839	21.1314	1.29981	-1.70448	0.994912
17	0.847829	-0.690897	1.09369	22.2251	1.29981	-1.70448	0.994912
18	0.84092	-0.676589	1.07931	23.3044	1.29981	-1.70448	0.994912
19	0.834154	-0.662546	1.06526	24.3697	1.29981	-1.70448	0.994912
20	0.827529	-0.648762	1.05152	25.4212	1.29981	-1.70448	0.994912
21	0.821041	-0.635233	1.03809	26.4593	1.29981	-1.70448	0.994912
22	0.814689	-0.621955	1.02496	27.4842	1.29981	-1.70448	0.994912
23	0.808469	-0.608922	1.01213	28.4964	1.29981	-1.70448	0.994912
24	0.80238	-0.59613	0.999592	29.496	1.29981	-1.70448	0.994912
25	0.796419	-0.583574	0.987341	30.4833	1.29981	-1.70448	0.994912
26	0.790583	-0.57125	0.975371	31.4587	1.29981	-1.70448	0.994912
27	0.78487	-0.559154	0.963678	32.4223	1.29981	-1.70448	0.994912
28	0.779279	-0.547281	0.952257	33.3746	1.29981	-1.70448	0.994912
29	0.773806	-0.535628	0.941102	34.3157	1.29981	-1.70448	0.994912
30	0.76845	-0.524189	0.930209	35.2459	1.29981	-1.70448	0.994912
31	0.763208	-0.512961	0.919574	36.1655	1.29981	-1.70448	0.994912
32	0.758078	-0.501941	0.90919	37.0747	1.29981	-1.70448	0.994912
33	0.753059	-0.491123	0.899055	37.9737	1.29981	-1.70448	0.994912
34	0.748148	-0.480505	0.889163	38.8629	1.29981	-1.70448	0.994912
35	0.743343	-0.470083	0.879509	39.7424	1.29981	-1.70448	0.994912
36	0.738642	-0.459853	0.87009	40.6125	1.29981	-1.70448	0.994912
37	0.734043	-0.449811	0.8609	41.4734	1.29981	-1.70448	0.994912
38	0.729545	-0.439954	0.851936	42.3253	1.29981	-1.70448	0.994912
39	0.725146	-0.430278	0.843193	43.1685	1.29981	-1.70448	0.994912
40	0.720843	-0.42078	0.834668	44.0032	1.29981	-1.70448	0.994912
41	0.716635	-0.411457	0.826355	44.8295	1.29981	-1.70448	0.994912
42	0.71252	-0.402306	0.818251	45.6478	1.29981	-1.70448	0.994912
43	0.708497	-0.393322	0.810352	46.4581	1.29981	-1.70448	0.994912
44	0.704564	-0.384504	0.802654	47.2608	1.29981	-1.70448	0.994912
45	0.700719	-0.375848	0.795153	48.056	1.29981	-1.70448	0.994912
46	0.696961	-0.367351	0.787845	48.8438	1.29981	-1.70448	0.994912
47	0.693287	-0.359009	0.780727	49.6245	1.29981	-1.70448	0.994912
48	0.689697	-0.350821	0.773794	50.3983	1.29981	-1.70448	0.994912
49	0.686189	-0.342783	0.767043	51.1654	1.29981	-1.70448	0.994912
50	0.682761	-0.334892	0.76047	51.9258	1.29981	-1.70448	0.994912
51	0.679412	-0.327146	0.754072	52.6799	1.29981	-1.70448	0.994912
52	0.676141	-0.319542	0.747846	53.4278	1.29981	-1.70448	0.994912
53	0.672945	-0.312077	0.741787	54.1695	1.29981	-1.70448	0.994912
54	0.669824	-0.304749	0.735892	54.9054	1.29981	-1.70448	0.994912
55	0.666777	-0.297555	0.730158	55.6356	1.29981	-1.70448	0.994912
56	0.663801	-0.290493	0.724581	56.3602	1.29981	-1.70448	0.994912
57	0.660896	-0.283559	0.719159	57.0793	1.29981	-1.70448	0.994912
58	0.658061	-0.276753	0.713888	57.7932	1.29981	-1.70448	0.994912
59	0.655293	-0.270071	0.708765	58.502	1.29981	-1.70448	0.994912
60	0.652593	-0.263511	0.703786	59.2058	1.29981	-1.70448	0.994912
61	0.649957	-0.25707	0.698949	59.9047	1.29981	-1.70448	0.994912
62	0.647387	-0.250748	0.694251	60.599	1.29981	-1.70448	0.994912
63	0.644879	-0.24454	0.689688	61.2887	1.29981	-1.70448	0.994912
64	0.642434	-0.238446	0.685257	61.9739	1.29981	-1.70448	0.994912
65	0.640049	-0.232463	0.680957	62.6549	1.29981	-1.70448	0.994912
66	0.637725	-0.226588	0.676783	63.3317	1.29981	-1.70448	0.994912
67	0.635459	-0.220821	0.672733	64.0044	1.29981	-1.70448	0.994912
68	0.633251	-0.215159	0.668805	64.6732	1.29981	-1.70448	0.994912
69	0.631099	-0.2096	0.664995	65.3382	1.29981	-1.70448	0.994912
70	0.629003	-0.204141	0.661301	65.9995	1.29981	-1.70448	0.994912
71	0.626962	-0.198782	0.65772	66.6572	1.29981	-1.70448	0.994912
72	0.624974	-0.19352	0.65425	67.3115	1.29981	-1.70448	0.994912
73	0.623039	-0.188354	0.650887	67.9623	1.29981	-1.70448	0.994912
74	0.621155	-0.183282	0.647631	68.61	1.29981	-1.70448	0.994912
75	0.619322	-0.178301	0.644478	69.2545	1.29981	-1.70448	0.994912
76	0.617539	-0.173411	0.641425	69.8959	1.29981	-1.70448	0.994912
77	0.615805	-0.168609	0.638471	70.5344	1.29981	-1.70448	0.994912
78	0.614119	-0.163894	0.635613	71.17	1.29981	-1.70448	0.994912
79	0.61248	-0.159265	0.632848	71.8028	1.29981	-1.70448	0.994912
80	0.610887	-0.154719	0.630176	72.433	1.29981	-1.70448	0.994912
81	0.60934	-0.150255	0.627592	73.0606	1.29981	-1.70448	0.994912
82	0.607838	-0.145872	0.625096	73.6857	1.29981	-1.70448	0.994912
83	0.606379	-0.141568	0.622685	74.3084	1.29981	-1.70448	0.994912
84	0.604963	-0.137342	0.620357	74.9287	1.29981	-1.70448	0.994912
85	0.60359	-0.133191	0.618111	75.5468	1.29981	-1.70448	0.994912
86	0.602258	-0.129116	0.615943	76.1628	1.29981	-1.70448	0.994912
87	0.600967	-0.125114	0.613852	76.7766	1.29981	-1.70448	0.994912
88	0.599716	-0.121183	0.611837	77.3885	1.29981	-1.70448	0.994912
89	0.598504	-0.117324	0.609895	77.9984	1.29981	-1.70448	0.994912
90	0.597331	-0.113534	0.608024	78.6064	1.29981	-1.70448	0.994912
91	0.596195	-0.109811	0.606224	79.2126	1.29981	-1.70448	0.994912
92	0.595097	-0.106156	0.604491	79.8171	1.29981	-1.70448	0.994912
93	0.594036	-0.102566	0.602825	80.4199	1.29981	-1.70448	0.994912
94	0.59301	-0.0990398	0.601224	81.0211	1.29981	-1.70448	0.994912
95	0.59202	-0.0955771	0.599685	81.6208	1.29981	-1.70448	0.994912
96	0.591064	-0.0921762	0.598208	82.219	1.29981	-1.70448	0.994912
97	0.590142	-0.0888361	0.596791	82.8158	1.29981	-1.70448	0.994912
98	0.589254	-0.0855556	0.595432	83.4113	1.29981	-1.70448	0.994912
99	0.588398	-0.0823335	0.594131	84.0054	1.29981	-1.70448	0.994912


t	x[0]	x[1]	P	theta[0]	theta[1]	theta[2]
0	0.99	-0.979947	1.39298	1.39298	1.30081	-1.70448	0.994912
1	0.980201	-0.960267	1.37219	2.76517	1.30081	-1.70448	0.994912
2	0.970598	-0.940953	1.35183	4.117	1.30081	-1.70448	0.994912
3	0.961188	-0.921998	1.3319	5.44891	1.30081	-1.70448	0.994912
4	0.951968	-0.903395	1.31239	6.7613	1.30081	-1.70448	0.994912
5	0.942934	-0.885137	1.29329	8.05458	1.30081	-1.70448	0.994912
6	0.934083	-0.867219	1.27459	9.32917	1.30081	-1.70448	0.994912
7	0.925411	-0.849633	1.25629	10.5855	1.30081	-1.70448	0.994912
8	0.916915	-0.832374	1.23838	11.8238	1.30081	-1.70448	0.994912
9	0.908591	-0.815435	1.22085	13.0447	1.30081	-1.70448	0.994912
10	0.900436	-0.79881	1.2037	14.2484	1.30081	-1.70448	0.994912
11	0.892448	-0.782494	1.18691	15.4353	1.30081	-1.70448	0.994912
12	0.884623	-0.76648	1.17049	16.6058	1.30081	-1.70448	0.994912
13	0.876959	-0.750763	1.15443	17.7602	1.30081	-1.70448	0.994912
14	0.869451	-0.735337	1.13871	18.8989	1.30081	-1.70448	0.994912
15	0.862098	-0.720197	1.12334	20.0223	1.30081	-1.70448	0.994912
16	0.854896	-0.705338	1.10831	21.1306	1.30081	-1.70448	0.994912
17	0.847842	-0.690753	1.09361	22.2242	1.30081	-1.70448	0.994912
18	0.840935	-0.676439	1.07923	23.3034	1.30081	-1.70448	0.994912
19	0.83417	-0.66239	1.06518	24.3686	1.30081	-1.70448	0.994912
20	0.827546	-0.648601	1.05144	25.42	1.30081	-1.70448	0.994912
21	0.82106	-0.635066	1.038	26.458	1.30081	-1.70448	0.994912
22	0.81471	-0.621782	1.02487	27.4829	1.30081	-1.70448	0.994912
23	0.808492	-0.608744	1.01204	28.4949	1.30081	-1.70448	0.994912
24	0.802404	-0.595947	0.999503	29.4944	1.30081	-1.70448	0.994912
25	0.796445	-0.583386	0.987251	30.4817	1.30081	-1.70448	0.994912
26	0.790611	-0.571058	0.975281	31.457	1.30081	-1.70448	0.994912
27	0.784901	-0.558957	0.963588	32.4206	1.30081	-1.70448	0.994912
28	0.779311	-0.547079	0.952167	33.3727	1.30081	-1.70448	0.994912
29	0.77384	-0.535421	0.941013	34.3137	1.30081	-1.70448	0.994912
30	0.768486	-0.523978	0.93012	35.2439	1.30081	-1.70448	0.994912
31	0.763246	-0.512746	0.919486	36.1634	1.30081	-1.70448	0.994912
32	0.758119	-0.501722	0.909103	37.0725	1.30081	-1.70448	0.994912
33	0.753102	-0.4909	0.898969	37.9714	1.30081	-1.70448	0.994912
34	0.748193	-0.480279	0.889078	38.8605	1.30081	-1.70448	0.994912
35	0.74339	-0.469852	0.879426	39.7399	1.30081	-1.70448	0.994912
36	0.738691	-0.459618	0.870008	40.6099	1.30081	-1.70448	0.994912
37	0.734095	-0.449573	0.86082	41.4708	1.30081	-1.70448	0.994912
38	0.729599	-0.439712	0.851858	42.3226	1.30081	-1.70448	0.994912
39	0.725202	-0.430033	0.843117	43.1657	1.30081	-1.70448	0.994912
40	0.720902	-0.420532	0.834594	44.0003	1.30081	-1.70448	0.994912
41	0.716697	-0.411206	0.826284	44.8266	1.30081	-1.70448	0.994912
42	0.712584	-0.402052	0.818182	45.6448	1.30081	-1.70448	0.994912
43	0.708564	-0.393065	0.810286	46.4551	1.30081	-1.70448	0.994912
44	0.704633	-0.384244	0.802591	47.2577	1.30081	-1.70448	0.994912
45	0.700791	-0.375585	0.795092	48.0528	1.30081	-1.70448	0.994912
46	0.697035	-0.367085	0.787787	48.8405	1.30081	-1.70448	0.994912
47	0.693364	-0.358741	0.780672	49.6212	1.30081	-1.70448	0.994912
48	0.689777	-0.35055	0.773742	50.395	1.30081	-1.70448	0.994912
49	0.686271	-0.342509	0.766995	51.162	1.30081	-1.70448	0.994912
50	0.682846	-0.334616	0.760425	51.9224	1.30081	-1.70448	0.994912
51	0.6795	-0.326868	0.754031	52.6764	1.30081	-1.70448	0.994912
52	0.676231	-0.319261	0.747808	53.4242	1.30081	-1.70448	0.994912
53	0.673039	-0.311794	0.741753	54.166	1.30081	-1.70448	0.994912
54	0.669921	-0.304464	0.735861	54.9018	1.30081	-1.70448	0.994912
55	0.666876	-0.297268	0.730131	55.632	1.30081	-1.70448	0.994912
56	0.663903	-0.290203	0.724559	56.3565	1.30081	-1.70448	0.994912
57	0.661001	-0.283268	0.719141	57.0757	1.30081	-1.70448	0.994912
58	0.658169	-0.27646	0.713874	57.7895	1.30081	-1.70448	0.994912
59	0.655404	-0.269776	0.708755	58.4983	1.30081	-1.70448	0.994912
60	0.652706	-0.263214	0.703781	59.2021	1.30081	-1.70448	0.994912
61	0.650074	-0.256771	0.698948	59.901	1.30081	-1.70448	0.994912
62	0.647507	-0.250447	0.694254	60.5953	1.30081	-1.70448	0.994912
63	0.645002	-0.244238	0.689695	61.285	1.30081	-1.70448	0.994912
64	0.64256	-0.238142	0.68527	61.9702	1.30081	-1.70448	0.994912
65	0.640178	-0.232157	0.680974	62.6512	1.30081	-1.70448	0.994912
66	0.637857	-0.226281	0.676804	63.328	1.30081	-1.70448	0.994912
67	0.635594	-0.220512	0.672759	64.0008	1.30081	-1.70448	0.994912
68	0.633389	-0.214848	0.668836	64.6696	1.30081	-1.70448	0.994912
69	0.63124	-0.209288	0.665031	65.3346	1.30081	-1.70448	0.994912
70	0.629147	-0.203828	0.661341	65.996	1.30081	-1.70448	0.994912
71	0.627109	-0.198468	0.657765	66.6538	1.30081	-1.70448	0.994912
72	0.625124	-0.193204	0.6543	67.3081	1.30081	-1.70448	0.994912
73	0.623192	-0.188037	0.650943	67.959	1.30081	-1.70448	0.994912
74	0.621312	-0.182963	0.647691	68.6067	1.30081	-1.70448	0.994912
75	0.619482	-0.177981	0.644543	69.2512	1.30081	-1.70448	0.994912
76	0.617703	-0.17309	0.641496	69.8927	1.30081	-1.70448	0.994912
77	0.615972	-0.168287	0.638546	70.5313	1.30081	-1.70448	0.994912
78	0.614289	-0.163571	0.635693	71.167	1.30081	-1.70448	0.994912
79	0.612653	-0.15894	0.632934	71.7999	1.30081	-1.70448	0.994912
80	0.611064	-0.154393	0.630267	72.4302	1.30081	-1.70448	0.994912
81	0.60952	-0.149928	0.627689	73.0579	1.30081	-1.70448	0.994912
82	0.608021	-0.145544	0.625198	73.6831	1.30081	-1.70448	0.994912
83	0.606565	-0.141239	0.622792	74.3058	1.30081	-1.70448	0.994912
84	0.605153	-0.137012	0.620469	74.9263	1.30081	-1.70448	0.994912
85	0.603783	-0.13286	0.618227	75.5445	1.30081	-1.70448	0.994912
86	0.602454	-0.128784	0.616065	76.1606	1.30081	-1.70448	0.994912
87	0.601166	-0.124781	0.61398	76.7746	1.30081	-1.70448	0.994912
88	0.599918	-0.12085	0.611969	77.3866	1.30081	-1.70448	0.994912
89	0.59871	-0.116989	0.610033	77.9966	1.30081	-1.70448	0.994912
90	0.59754	-0.113198	0.608167	78.6048	1.30081	-1.70448	0.994912
91	0.596408	-0.109475	0.606372	79.2111	1.30081	-1.70448	0.994912
92	0.595313	-0.105818	0.604645	79.8158	1.30081	-1.70448	0.994912
93	0.594255	-0.102227	0.602984	80.4188	1.30081	-1.70448	0.994912
94	0.593233	-0.0987006	0.601387	81.0201	1.30081	-1.70448	0.994912
95	0.592246	-0.095237	0.599854	81.62	1.30081	-1.70448	0.994912
96	0.591293	-0.0918353	0.598382	82.2184	1.30081	-1.70448	0.994912
97	0.590375	-0.0884944	0.596971	82.8154	1.30081	-1.70448	0.994912
98	0.58949	-0.0852131	0.595617	83.411	1.30081	-1.70448	0.994912
99	0.588638	-0.0819902	0.594321	84.0053	1.30081	-1.70448	0.994912


t	x[0]	x[1]	P	theta[0]	theta[1]	theta[2]
0	0.99	-0.979967	1.393	1.393	1.29981	-1.70348	0.994912
1	0.9802	-0.960306	1.37222	2.76521	1.29981	-1.70348	0.994912
2	0.970597	-0.941011	1.35187	4.11709	1.29981	-1.70348	0.994912
3	0.961187	-0.922074	1.33195	5.44904	1.29981	-1.70348	0.994912
4	0.951966	-0.903489	1.31245	6.76149	1.29981	-1.70348	0.994912
5	0.942932	-0.885248	1.29336	8.05485	1.29981	-1.70348	0.994912
6	0.934079	-0.867346	1.27467	9.32953	1.29981	-1.70348	0.994912
7	0.925406	-0.849776	1.25638	10.5859	1.29981	-1.70348	0.994912
8	0.916908	-0.832532	1.23848	11.8244	1.29981	-1.70348	0.994912
9	0.908583	-0.815608	1.22096	13.0453	1.29981	-1.70348	0.994912
10	0.900426	-0.798997	1.20381	14.2492	1.29981	-1.70348	0.994912
11	0.892436	-0.782695	1.18704	15.4362	1.29981	-1.70348	0.994912
12	0.88461	-0.766694	1.17062	16.6068	1.29981	-1.70348	0.994912
13	0.876943	-0.75099	1.15456	17.7614	1.29981	-1.70348	0.994912
14	0.869433	-0.735577	1.13885	18.9002	1.29981	-1.70348	0.994912
15	0.862077	-0.720449	1.12349	20.0237	1.29981	-1.70348	0.994912
16	0.854872	-0.705601	1.10846	21.1322	1.29981	-1.70348	0.994912
17	0.847816	-0.691028	1.09376	22.2259	1.29981	-1.70348	0.994912
18	0.840906	-0.676725	1.07939	23.3053	1.29981	-1.70348	0.994912
19	0.834139	-0.662686	1.06534	24.3707	1.29981	-1.70348	0.994912
20	0.827512	-0.648907	1.0516	25.4223	1.29981	-1.70348	0.994912
21	0.821023	-0.635382	1.03817	26.4604	1.29981	-1.70348	0.994912
22	0.814669	-0.622107	1.02504	27.4855	1.29981	-1.70348	0.994912
23	0.808448	-0.609078	1.01221	28.4977	1.29981	-1.70348	0.994912
24	0.802357	-0.59629	0.999669	29.4973	1.29981	-1.70348	0.994912
25	0.796394	-0.583737	0.987417	30.4848	1.29981	-1.70348	0.994912
26	0.790557	-0.571417	0.975447	31.4602	1.29981	-1.70348	0.994912
27	0.784843	-0.559323	0.963754	32.424	1.29981	-1.70348	0.994912
28	0.77925	-0.547453	0.952331	33.3763	1.29981	-1.70348	0.994912
29	0.773775	-0.535802	0.941176	34.3175	1.29981	-1.70348	0.994912
30	0.768417	-0.524366	0.930282	35.2477	1.29981	-1.70348	0.994912
31	0.763173	-0.513141	0.919645	36.1674	1.29981	-1.70348	0.994912
32	0.758042	-0.502122	0.90926	37.0767	1.29981	-1.70348	0.994912
33	0.753021	-0.491307	0.899123	37.9758	1.29981	-1.70348	0.994912
34	0.748108	-0.480691	0.889229	38.865	1.29981	-1.70348	0.994912
35	0.743301	-0.47027	0.879574	39.7446	1.29981	-1.70348	0.994912
36	0.738598	-0.460042	0.870152	40.6147	1.29981	-1.70348	0.994912
37	0.733998	-0.450001	0.860961	41.4757	1.29981	-1.70348	0.994912
38	0.729498	-0.440145	0.851995	42.3277	1.29981	-1.70348	0.994912
39	0.725096	-0.430471	0.84325	43.1709	1.29981	-1.70348	0.994912
40	0.720791	-0.420975	0.834721	44.0057	1.29981	-1.70348	0.994912
41	0.716582	-0.411653	0.826406	44.8321	1.29981	-1.70348	0.994912
42	0.712465	-0.402502	0.8183	45.6504	1.29981	-1.70348	0.994912
43	0.70844	-0.39352	0.810398	46.4608	1.29981	-1.70348	0.994912
44	0.704505	-0.384702	0.802697	47.2635	1.29981	-1.70348	0.994912
45	0.700658	-0.376046	0.795193	48.0587	1.29981	-1.70348	0.994912
46	0.696897	-0.36755	0.787883	48.8465	1.29981	-1.70348	0.994912
47	0.693222	-0.359209	0.780761	49.6273	1.29981	-1.70348	0.994912
48	0.68963	-0.351021	0.773825	50.4011	1.29981	-1.70348	0.994912
49	0.68612	-0.342983	0.767071	51.1682	1.29981	-1.70348	0.994912
50	0.68269	-0.335093	0.760495	51.9287	1.29981	-1.70348	0.994912
51	0.679339	-0.327347	0.754094	52.6828	1.29981	-1.70348	0.994912
52	0.676065	-0.319743	0.747864	53.4306	1.29981	-1.70348	0.994912
53	0.672868	-0.312278	0.741801	54.1724	1.29981	-1.70348	0.994912
54	0.669745	-0.30495	0.735903	54.9083	1.29981	-1.70348	0.994912
55	0.666696	-0.297756	0.730165	55.6385	1.29981	-1.70348	0.994912
56	0.663718	-0.290693	0.724586	56.3631	1.29981	-1.70348	0.994912
57	0.660811	-0.283759	0.71916	57.0823	1.29981	-1.70348	0.994912
58	0.657974	-0.276953	0.713885	57.7961	1.29981	-1.70348	0.994912
59	0.655204	-0.27027	0.708758	58.5049	1.29981	-1.70348	0.994912
60	0.652501	-0.26371	0.703776	59.2087	1.29981	-1.70348	0.994912
61	0.649864	-0.257269	0.698936	59.9076	1.29981	-1.70348	0.994912
62	0.647292	-0.250946	0.694234	60.6018	1.29981	-1.70348	0.994912
63	0.644782	-0.244738	0.689667	61.2915	1.29981	-1.70348	0.994912
64	0.642335	-0.238643	0.685233	61.9767	1.29981	-1.70348	0.994912
65	0.639948	-0.232659	0.680929	62.6577	1.29981	-1.70348	0.994912
66	0.637622	-0.226784	0.676751	63.3344	1.29981	-1.70348	0.994912
67	0.635354	-0.221016	0.672698	64.0071	1.29981	-1.70348	0.994912
68	0.633144	-0.215353	0.668766	64.6759	1.29981	-1.70348	0.994912
69	0.63099	-0.209793	0.664952	65.3408	1.29981	-1.70348	0.994912
70	0.628892	-0.204333	0.661255	66.0021	1.29981	-1.70348	0.994912
71	0.626849	-0.198974	0.65767	66.6598	1.29981	-1.70348	0.994912
72	0.624859	-0.193711	0.654196	67.314	1.29981	-1.70348	0.994912
73	0.622922	-0.188544	0.650831	67.9648	1.29981	-1.70348	0.994912
74	0.621037	-0.18347	0.647571	68.6124	1.29981	-1.70348	0.994912
75	0.619202	-0.178489	0.644414	69.2568	1.29981	-1.70348	0.994912
76	0.617417	-0.173597	0.641358	69.8981	1.29981	-1.70348	0.994912
77	0.615681	-0.168794	0.6384	70.5365	1.29981	-1.70348	0.994912
78	0.613993	-0.164079	0.635539	71.1721	1.29981	-1.70348	0.994912
79	0.612352	-0.159448	0.632771	71.8049	1.29981	-1.70348	0.994912
80	0.610758	-0.154901	0.630095	72.4349	1.29981	-1.70348	0.994912
81	0.609209	-0.150436	0.627508	73.0625	1.29981	-1.70348	0.994912
82	0.607705	-0.146052	0.625009	73.6875	1.29981	-1.70348	0.994912
83	0.606244	-0.141747	0.622595	74.3101	1.29981	-1.70348	0.994912
84	0.604827	-0.137519	0.620263	74.9303	1.29981	-1.70348	0.994912
85	0.603451	-0.133367	0.618013	75.5483	1.29981	-1.70348	0.994912
86	0.602118	-0.129291	0.615842	76.1642	1.29981	-1.70348	0.994912
87	0.600825	-0.125287	0.613749	76.7779	1.29981	-1.70348	0.994912
88	0.599572	-0.121356	0.61173	77.3897	1.29981	-1.70348	0.994912
89	0.598358	-0.117495	0.609785	77.9994	1.29981	-1.70348	0.994912
90	0.597183	-0.113703	0.607912	78.6074	1.29981	-1.70348	0.994912
91	0.596046	-0.10998	0.606108	79.2135	1.29981	-1.70348	0.994912
92	0.594947	-0.106323	0.604372	79.8178	1.29981	-1.70348	0.994912
93	0.593883	-0.102731	0.602703	80.4205	1.29981	-1.70348	0.994912
94	0.592856	-0.0992042	0.601099	81.0216	1.29981	-1.70348	0.994912
95	0.591864	-0.0957401	0.599558	81.6212	1.29981	-1.70348	0.994912
96	0.590907	-0.0923379	0.598078	82.2193	1.29981	-1.70348	0.994912
97	0.589983	-0.0889964	0.596658	82.8159	1.29981	-1.70348	0.994912
98	0.589093	-0.0857145	0.595297	83.4112	1.29981	-1.70348	0.994912
99	0.588236	-0.0824911	0.593992	84.0052	1.29981	-1.70348	0.994912


t	x[0]	x[1]	P	theta[0]	theta[1]	theta[2]
0	0.99	-0.979957	1.39299	1.39299	1.29981	-1.70448	0.995912
1	0.9802	-0.960287	1.3722	2.76519	1.29981	-1.70448	0.995912
2	0.970598	-0.940982	1.35185	4.11704	1.29981	-1.70448	0.995912
3	0.961188	-0.922035	1.33193	5.44897	1.29981	-1.70448	0.995912
4	0.951967	-0.90344	1.31242	6.76139	1.29981	-1.70448	0.995912
5	0.942933	-0.885191	1.29332	8.05472	1.29981	-1.70448	0.995912
6	0.934081	-0.86728	1.27463	9.32935	1.29981	-1.70448	0.995912
7	0.925408	-0.849701	1.25633	10.5857	1.29981	-1.70448	0.995912
