
Current theta : [ 1.30602 , -1.69394 , 0.998154 ] 


t	x[0]	x[1]	P	theta[0]	theta[1]	theta[2]
0	0.99	-0.98	1.39302	1.39302	1.30602	-1.69394	0.998154
1	0.9802	-0.96037	1.37226	2.76528	1.30602	-1.69394	0.998154
2	0.970596	-0.941103	1.35194	4.11722	1.30602	-1.69394	0.998154
3	0.961185	-0.922192	1.33203	5.44925	1.30602	-1.69394	0.998154
4	0.951963	-0.903631	1.31255	6.7618	1.30602	-1.69394	0.998154
5	0.942927	-0.885412	1.29347	8.05527	1.30602	-1.69394	0.998154
6	0.934073	-0.86753	1.27479	9.33006	1.30602	-1.69394	0.998154
7	0.925398	-0.849978	1.25651	10.5866	1.30602	-1.69394	0.998154
8	0.916898	-0.83275	1.23862	11.8252	1.30602	-1.69394	0.998154
9	0.90857	-0.81584	1.2211	13.0463	1.30602	-1.69394	0.998154
10	0.900412	-0.799243	1.20396	14.2503	1.30602	-1.69394	0.998154
11	0.892419	-0.782951	1.18719	15.4375	1.30602	-1.69394	0.998154
12	0.88459	-0.766961	1.17078	16.6082	1.30602	-1.69394	0.998154
13	0.87692	-0.751265	1.15472	17.763	1.30602	-1.69394	0.998154
14	0.869408	-0.735858	1.13902	18.902	1.30602	-1.69394	0.998154
15	0.862049	-0.720736	1.12365	20.0256	1.30602	-1.69394	0.998154
16	0.854842	-0.705893	1.10862	21.1342	1.30602	-1.69394	0.998154
17	0.847783	-0.691323	1.09392	22.2282	1.30602	-1.69394	0.998154
18	0.84087	-0.677021	1.07955	23.3077	1.30602	-1.69394	0.998154
19	0.834099	-0.662983	1.06549	24.3732	1.30602	-1.69394	0.998154
20	0.82747	-0.649204	1.05175	25.425	1.30602	-1.69394	0.998154
21	0.820978	-0.635678	1.03831	26.4633	1.30602	-1.69394	0.998154
22	0.814621	-0.622402	1.02518	27.4884	1.30602	-1.69394	0.998154
23	0.808397	-0.609369	1.01234	28.5008	1.30602	-1.69394	0.998154
24	0.802303	-0.596577	0.999797	29.5006	1.30602	-1.69394	0.998154
25	0.796337	-0.58402	0.987539	30.4881	1.30602	-1.69394	0.998154
26	0.790497	-0.571694	0.975561	31.4637	1.30602	-1.69394	0.998154
27	0.78478	-0.559595	0.96386	32.4275	1.30602	-1.69394	0.998154
28	0.779184	-0.547718	0.95243	33.38	1.30602	-1.69394	0.998154
29	0.773707	-0.536059	0.941266	34.3212	1.30602	-1.69394	0.998154
30	0.768346	-0.524615	0.930364	35.2516	1.30602	-1.69394	0.998154
31	0.7631	-0.513381	0.919719	36.1713	1.30602	-1.69394	0.998154
32	0.757966	-0.502353	0.909325	37.0806	1.30602	-1.69394	0.998154
33	0.752943	-0.491528	0.899179	37.9798	1.30602	-1.69394	0.998154
34	0.748028	-0.480902	0.889276	38.8691	1.30602	-1.69394	0.998154
35	0.743219	-0.47047	0.879611	39.7487	1.30602	-1.69394	0.998154
36	0.738514	-0.46023	0.870181	40.6189	1.30602	-1.69394	0.998154
37	0.733912	-0.450178	0.86098	41.4799	1.30602	-1.69394	0.998154
38	0.72941	-0.44031	0.852005	42.3319	1.30602	-1.69394	0.998154
39	0.725007	-0.430623	0.84325	43.1751	1.30602	-1.69394	0.998154
40	0.720701	-0.421114	0.834713	44.0098	1.30602	-1.69394	0.998154
41	0.716489	-0.411779	0.826389	44.8362	1.30602	-1.69394	0.998154
42	0.712372	-0.402614	0.818274	45.6545	1.30602	-1.69394	0.998154
43	0.708345	-0.393618	0.810363	46.4649	1.30602	-1.69394	0.998154
44	0.704409	-0.384786	0.802654	47.2675	1.30602	-1.69394	0.998154
45	0.700561	-0.376116	0.795141	48.0627	1.30602	-1.69394	0.998154
46	0.6968	-0.367605	0.787822	48.8505	1.30602	-1.69394	0.998154
47	0.693124	-0.359249	0.780692	49.6312	1.30602	-1.69394	0.998154
48	0.689532	-0.351045	0.773749	50.4049	1.30602	-1.69394	0.998154
49	0.686021	-0.342992	0.766987	51.1719	1.30602	-1.69394	0.998154
50	0.682591	-0.335086	0.760404	51.9323	1.30602	-1.69394	0.998154
51	0.67924	-0.327324	0.753995	52.6863	1.30602	-1.69394	0.998154
52	0.675967	-0.319704	0.747758	53.4341	1.30602	-1.69394	0.998154
53	0.67277	-0.312223	0.741689	54.1758	1.30602	-1.69394	0.998154
54	0.669648	-0.304879	0.735785	54.9115	1.30602	-1.69394	0.998154
55	0.666599	-0.297668	0.730042	55.6416	1.30602	-1.69394	0.998154
56	0.663622	-0.290589	0.724456	56.366	1.30602	-1.69394	0.998154
57	0.660717	-0.283639	0.719025	57.0851	1.30602	-1.69394	0.998154
58	0.65788	-0.276815	0.713746	57.7988	1.30602	-1.69394	0.998154
59	0.655112	-0.270115	0.708614	58.5074	1.30602	-1.69394	0.998154
60	0.652411	-0.263538	0.703628	59.2111	1.30602	-1.69394	0.998154
61	0.649776	-0.25708	0.698783	59.9098	1.30602	-1.69394	0.998154
62	0.647205	-0.250739	0.694078	60.6039	1.30602	-1.69394	0.998154
63	0.644697	-0.244514	0.689508	61.2934	1.30602	-1.69394	0.998154
64	0.642252	-0.238402	0.685072	61.9785	1.30602	-1.69394	0.998154
65	0.639868	-0.232401	0.680765	62.6593	1.30602	-1.69394	0.998154
66	0.637544	-0.226508	0.676586	63.3358	1.30602	-1.69394	0.998154
67	0.635279	-0.220723	0.672531	64.0084	1.30602	-1.69394	0.998154
68	0.633072	-0.215042	0.668598	64.677	1.30602	-1.69394	0.998154
69	0.630921	-0.209465	0.664784	65.3418	1.30602	-1.69394	0.998154
70	0.628827	-0.203988	0.661086	66.0028	1.30602	-1.69394	0.998154
71	0.626787	-0.19861	0.657501	66.6603	1.30602	-1.69394	0.998154
72	0.624801	-0.19333	0.654028	67.3144	1.30602	-1.69394	0.998154
73	0.622867	-0.188145	0.650663	67.965	1.30602	-1.69394	0.998154
74	0.620986	-0.183054	0.647404	68.6124	1.30602	-1.69394	0.998154
75	0.619155	-0.178055	0.644249	69.2567	1.30602	-1.69394	0.998154
76	0.617375	-0.173146	0.641195	69.8979	1.30602	-1.69394	0.998154
77	0.615643	-0.168326	0.63824	70.5361	1.30602	-1.69394	0.998154
78	0.61396	-0.163593	0.635382	71.1715	1.30602	-1.69394	0.998154
79	0.612324	-0.158944	0.632617	71.8041	1.30602	-1.69394	0.998154
80	0.610735	-0.15438	0.629945	72.4341	1.30602	-1.69394	0.998154
81	0.609191	-0.149898	0.627362	73.0614	1.30602	-1.69394	0.998154
82	0.607692	-0.145496	0.624867	73.6863	1.30602	-1.69394	0.998154
83	0.606237	-0.141173	0.622458	74.3088	1.30602	-1.69394	0.998154
84	0.604825	-0.136928	0.620132	74.9289	1.30602	-1.69394	0.998154
85	0.603456	-0.13276	0.617887	75.5468	1.30602	-1.69394	0.998154
86	0.602129	-0.128666	0.615722	76.1625	1.30602	-1.69394	0.998154
87	0.600842	-0.124645	0.613634	76.7761	1.30602	-1.69394	0.998154
88	0.599595	-0.120696	0.611623	77.3878	1.30602	-1.69394	0.998154
89	0.598388	-0.116818	0.609685	77.9974	1.30602	-1.69394	0.998154
90	0.59722	-0.11301	0.607818	78.6053	1.30602	-1.69394	0.998154
91	0.59609	-0.109269	0.606022	79.2113	1.30602	-1.69394	0.998154
92	0.594997	-0.105595	0.604295	79.8156	1.30602	-1.69394	0.998154
93	0.593942	-0.101987	0.602634	80.4182	1.30602	-1.69394	0.998154
94	0.592922	-0.0984429	0.601038	81.0192	1.30602	-1.69394	0.998154
95	0.591937	-0.094962	0.599506	81.6188	1.30602	-1.69394	0.998154
96	0.590988	-0.0915431	0.598036	82.2168	1.30602	-1.69394	0.998154
97	0.590072	-0.0881849	0.596625	82.8134	1.30602	-1.69394	0.998154
98	0.58919	-0.0848864	0.595274	83.4087	1.30602	-1.69394	0.998154
99	0.588341	-0.0816464	0.59398	84.0027	1.30602	-1.69394	0.998154


t	x[0]	x[1]	P	theta[0]	theta[1]	theta[2]
0	0.99	-0.97999	1.39301	1.39301	1.30702	-1.69394	0.998154
1	0.9802	-0.960351	1.37225	2.76526	1.30702	-1.69394	0.998154
2	0.970597	-0.941074	1.35192	4.11718	1.30702	-1.69394	0.998154
3	0.961186	-0.922154	1.33201	5.44918	1.30702	-1.69394	0.998154
4	0.951964	-0.903583	1.31252	6.7617	1.30702	-1.69394	0.998154
5	0.942928	-0.885356	1.29343	8.05513	1.30702	-1.69394	0.998154
6	0.934075	-0.867465	1.27475	9.32989	1.30702	-1.69394	0.998154
7	0.9254	-0.849905	1.25647	10.5864	1.30702	-1.69394	0.998154
8	0.916901	-0.832669	1.23857	11.8249	1.30702	-1.69394	0.998154
9	0.908575	-0.815752	1.22105	13.046	1.30702	-1.69394	0.998154
10	0.900417	-0.799147	1.2039	14.2499	1.30702	-1.69394	0.998154
11	0.892426	-0.782848	1.18713	15.437	1.30702	-1.69394	0.998154
12	0.884597	-0.76685	1.17071	16.6077	1.30702	-1.69394	0.998154
13	0.876929	-0.751147	1.15465	17.7624	1.30702	-1.69394	0.998154
14	0.869417	-0.735734	1.13894	18.9013	1.30702	-1.69394	0.998154
15	0.86206	-0.720605	1.12357	20.0249	1.30702	-1.69394	0.998154
16	0.854854	-0.705755	1.10854	21.1334	1.30702	-1.69394	0.998154
17	0.847796	-0.691179	1.09384	22.2273	1.30702	-1.69394	0.998154
18	0.840884	-0.676871	1.07946	23.3067	1.30702	-1.69394	0.998154
19	0.834116	-0.662827	1.06541	24.3721	1.30702	-1.69394	0.998154
20	0.827487	-0.649042	1.05166	25.4238	1.30702	-1.69394	0.998154
21	0.820997	-0.635511	1.03822	26.462	1.30702	-1.69394	0.998154
22	0.814642	-0.622229	1.02509	27.4871	1.30702	-1.69394	0.998154
23	0.80842	-0.609191	1.01225	28.4994	1.30702	-1.69394	0.998154
24	0.802328	-0.596394	0.999708	29.4991	1.30702	-1.69394	0.998154
25	0.796364	-0.583832	0.987449	30.4865	1.30702	-1.69394	0.998154
26	0.790525	-0.571501	0.975471	31.462	1.30702	-1.69394	0.998154
27	0.78481	-0.559397	0.96377	32.4258	1.30702	-1.69394	0.998154
28	0.779216	-0.547516	0.95234	33.3781	1.30702	-1.69394	0.998154
29	0.773741	-0.535853	0.941177	34.3193	1.30702	-1.69394	0.998154
30	0.768383	-0.524404	0.930275	35.2496	1.30702	-1.69394	0.998154
31	0.763139	-0.513166	0.91963	36.1692	1.30702	-1.69394	0.998154
32	0.758007	-0.502134	0.909238	37.0784	1.30702	-1.69394	0.998154
33	0.752986	-0.491305	0.899093	37.9775	1.30702	-1.69394	0.998154
34	0.748073	-0.480674	0.889191	38.8667	1.30702	-1.69394	0.998154
35	0.743266	-0.470239	0.879528	39.7462	1.30702	-1.69394	0.998154
36	0.738564	-0.459995	0.870099	40.6163	1.30702	-1.69394	0.998154
37	0.733964	-0.44994	0.8609	41.4772	1.30702	-1.69394	0.998154
38	0.729464	-0.440068	0.851926	42.3292	1.30702	-1.69394	0.998154
39	0.725063	-0.430378	0.843174	43.1723	1.30702	-1.69394	0.998154
40	0.72076	-0.420865	0.834639	44.007	1.30702	-1.69394	0.998154
41	0.716551	-0.411527	0.826317	44.8333	1.30702	-1.69394	0.998154
42	0.712436	-0.40236	0.818204	45.6515	1.30702	-1.69394	0.998154
43	0.708412	-0.39336	0.810296	46.4618	1.30702	-1.69394	0.998154
44	0.704479	-0.384526	0.80259	47.2644	1.30702	-1.69394	0.998154
45	0.700633	-0.375853	0.79508	48.0595	1.30702	-1.69394	0.998154
46	0.696875	-0.367338	0.787764	48.8472	1.30702	-1.69394	0.998154
47	0.693201	-0.35898	0.780637	49.6279	1.30702	-1.69394	0.998154
48	0.689612	-0.350774	0.773697	50.4016	1.30702	-1.69394	0.998154
49	0.686104	-0.342718	0.766938	51.1685	1.30702	-1.69394	0.998154
50	0.682677	-0.33481	0.760358	51.9288	1.30702	-1.69394	0.998154
51	0.679329	-0.327045	0.753954	52.6828	1.30702	-1.69394	0.998154
52	0.676058	-0.319423	0.74772	53.4305	1.30702	-1.69394	0.998154
53	0.672864	-0.31194	0.741655	54.1722	1.30702	-1.69394	0.998154
54	0.669745	-0.304593	0.735754	54.9079	1.30702	-1.69394	0.998154
55	0.666699	-0.29738	0.730015	55.6379	1.30702	-1.69394	0.998154
56	0.663725	-0.290299	0.724434	56.3624	1.30702	-1.69394	0.998154
57	0.660822	-0.283346	0.719007	57.0814	1.30702	-1.69394	0.998154
58	0.657988	-0.276521	0.713731	57.7951	1.30702	-1.69394	0.998154
59	0.655223	-0.269819	0.708604	58.5037	1.30702	-1.69394	0.998154
60	0.652525	-0.26324	0.703622	59.2073	1.30702	-1.69394	0.998154
61	0.649893	-0.25678	0.698782	59.9061	1.30702	-1.69394	0.998154
62	0.647325	-0.250438	0.694081	60.6002	1.30702	-1.69394	0.998154
63	0.64482	-0.244211	0.689516	61.2897	1.30702	-1.69394	0.998154
64	0.642378	-0.238097	0.685084	61.9748	1.30702	-1.69394	0.998154
65	0.639997	-0.232094	0.680782	62.6556	1.30702	-1.69394	0.998154
66	0.637676	-0.2262	0.676607	63.3322	1.30702	-1.69394	0.998154
67	0.635414	-0.220413	0.672557	64.0048	1.30702	-1.69394	0.998154
68	0.63321	-0.214731	0.668629	64.6734	1.30702	-1.69394	0.998154
69	0.631063	-0.209152	0.664819	65.3382	1.30702	-1.69394	0.998154
70	0.628971	-0.203674	0.661126	65.9993	1.30702	-1.69394	0.998154
71	0.626935	-0.198295	0.657547	66.6569	1.30702	-1.69394	0.998154
72	0.624952	-0.193013	0.654079	67.311	1.30702	-1.69394	0.998154
73	0.623022	-0.187827	0.650719	67.9617	1.30702	-1.69394	0.998154
74	0.621143	-0.182735	0.647465	68.6091	1.30702	-1.69394	0.998154
75	0.619316	-0.177734	0.644315	69.2535	1.30702	-1.69394	0.998154
76	0.617539	-0.172824	0.641266	69.8947	1.30702	-1.69394	0.998154
77	0.61581	-0.168003	0.638316	70.533	1.30702	-1.69394	0.998154
78	0.61413	-0.163268	0.635462	71.1685	1.30702	-1.69394	0.998154
79	0.612498	-0.158619	0.632703	71.8012	1.30702	-1.69394	0.998154
80	0.610911	-0.154053	0.630036	72.4312	1.30702	-1.69394	0.998154
81	0.609371	-0.14957	0.627458	73.0587	1.30702	-1.69394	0.998154
82	0.607875	-0.145167	0.624969	73.6837	1.30702	-1.69394	0.998154
83	0.606424	-0.140843	0.622564	74.3062	1.30702	-1.69394	0.998154
84	0.605015	-0.136597	0.620244	74.9265	1.30702	-1.69394	0.998154
85	0.603649	-0.132427	0.618004	75.5445	1.30702	-1.69394	0.998154
86	0.602325	-0.128332	0.615844	76.1603	1.30702	-1.69394	0.998154
87	0.601042	-0.124311	0.613762	76.7741	1.30702	-1.69394	0.998154
88	0.599798	-0.120361	0.611756	77.3858	1.30702	-1.69394	0.998154
89	0.598595	-0.116482	0.609823	77.9957	1.30702	-1.69394	0.998154
90	0.59743	-0.112672	0.607962	78.6036	1.30702	-1.69394	0.998154
91	0.596303	-0.108931	0.606171	79.2098	1.30702	-1.69394	0.998154
92	0.595214	-0.105256	0.604449	79.8142	1.30702	-1.69394	0.998154
93	0.594161	-0.101647	0.602793	80.417	1.30702	-1.69394	0.998154
94	0.593145	-0.0981022	0.601203	81.0182	1.30702	-1.69394	0.998154
95	0.592164	-0.0946205	0.599676	81.6179	1.30702	-1.69394	0.998154
96	0.591218	-0.0912007	0.598211	82.2161	1.30702	-1.69394	0.998154
97	0.590306	-0.0878418	0.596806	82.8129	1.30702	-1.69394	0.998154
98	0.589427	-0.0845424	0.595459	83.4084	1.30702	-1.69394	0.998154
99	0.588582	-0.0813017	0.594171	84.0026	1.30702	-1.69394	0.998154


t	x[0]	x[1]	P	theta[0]	theta[1]	theta[2]
0	0.99	-0.98001	1.39303	1.39303	1.30602	-1.69294	0.998154
1	0.9802	-0.96039	1.37228	2.7653	1.30602	-1.69294	0.998154
2	0.970596	-0.941132	1.35196	4.11726	1.30602	-1.69294	0.998154
3	0.961185	-0.92223	1.33206	5.44932	1.30602	-1.69294	0.998154
4	0.951962	-0.903677	1.31258	6.7619	1.30602	-1.69294	0.998154
5	0.942926	-0.885467	1.29351	8.0554	1.30602	-1.69294	0.998154
6	0.934071	-0.867593	1.27484	9.33024	1.30602	-1.69294	0.998154
7	0.925395	-0.850048	1.25656	10.5868	1.30602	-1.69294	0.998154
8	0.916895	-0.832828	1.23867	11.8255	1.30602	-1.69294	0.998154
9	0.908566	-0.815925	1.22116	13.0466	1.30602	-1.69294	0.998154
10	0.900407	-0.799334	1.20402	14.2506	1.30602	-1.69294	0.998154
11	0.892414	-0.783049	1.18725	15.4379	1.30602	-1.69294	0.998154
12	0.884583	-0.767065	1.17084	16.6087	1.30602	-1.69294	0.998154
13	0.876913	-0.751375	1.15479	17.7635	1.30602	-1.69294	0.998154
14	0.869399	-0.735974	1.13908	18.9026	1.30602	-1.69294	0.998154
15	0.862039	-0.720857	1.12372	20.0263	1.30602	-1.69294	0.998154
16	0.85483	-0.706019	1.10869	21.135	1.30602	-1.69294	0.998154
17	0.84777	-0.691454	1.09399	22.229	1.30602	-1.69294	0.998154
18	0.840856	-0.677157	1.07962	23.3086	1.30602	-1.69294	0.998154
19	0.834084	-0.663124	1.06557	24.3742	1.30602	-1.69294	0.998154
20	0.827453	-0.649349	1.05182	25.426	1.30602	-1.69294	0.998154
21	0.820959	-0.635827	1.03839	26.4644	1.30602	-1.69294	0.998154
22	0.814601	-0.622554	1.02526	27.4897	1.30602	-1.69294	0.998154
23	0.808376	-0.609526	1.01242	28.5021	1.30602	-1.69294	0.998154
24	0.80228	-0.596737	0.999874	29.502	1.30602	-1.69294	0.998154
25	0.796313	-0.584183	0.987616	30.4896	1.30602	-1.69294	0.998154
26	0.790471	-0.57186	0.975638	31.4652	1.30602	-1.69294	0.998154
27	0.784753	-0.559764	0.963936	32.4292	1.30602	-1.69294	0.998154
28	0.779155	-0.54789	0.952505	33.3817	1.30602	-1.69294	0.998154
29	0.773676	-0.536234	0.94134	34.323	1.30602	-1.69294	0.998154
30	0.768314	-0.524792	0.930437	35.2534	1.30602	-1.69294	0.998154
31	0.763066	-0.513561	0.91979	36.1732	1.30602	-1.69294	0.998154
32	0.75793	-0.502535	0.909395	37.0826	1.30602	-1.69294	0.998154
33	0.752905	-0.491712	0.899248	37.9819	1.30602	-1.69294	0.998154
34	0.747988	-0.481088	0.889343	38.8712	1.30602	-1.69294	0.998154
35	0.743177	-0.470658	0.879676	39.7509	1.30602	-1.69294	0.998154
36	0.73847	-0.46042	0.870244	40.6211	1.30602	-1.69294	0.998154
37	0.733866	-0.450369	0.861041	41.4822	1.30602	-1.69294	0.998154
38	0.729362	-0.440502	0.852063	42.3342	1.30602	-1.69294	0.998154
39	0.724957	-0.430817	0.843307	43.1775	1.30602	-1.69294	0.998154
40	0.720649	-0.421308	0.834767	44.0123	1.30602	-1.69294	0.998154
41	0.716436	-0.411974	0.82644	44.8388	1.30602	-1.69294	0.998154
42	0.712316	-0.402811	0.818322	45.6571	1.30602	-1.69294	0.998154
43	0.708288	-0.393816	0.810409	46.4675	1.30602	-1.69294	0.998154
44	0.70435	-0.384985	0.802697	47.2702	1.30602	-1.69294	0.998154
45	0.7005	-0.376315	0.795181	48.0654	1.30602	-1.69294	0.998154
46	0.696737	-0.367804	0.787859	48.8532	1.30602	-1.69294	0.998154
47	0.693059	-0.359449	0.780727	49.6339	1.30602	-1.69294	0.998154
48	0.689465	-0.351246	0.77378	50.4077	1.30602	-1.69294	0.998154
49	0.685952	-0.343193	0.767015	51.1747	1.30602	-1.69294	0.998154
50	0.68252	-0.335287	0.760428	51.9352	1.30602	-1.69294	0.998154
51	0.679167	-0.327526	0.754017	52.6892	1.30602	-1.69294	0.998154
52	0.675892	-0.319906	0.747776	53.437	1.30602	-1.69294	0.998154
53	0.672693	-0.312425	0.741704	54.1787	1.30602	-1.69294	0.998154
54	0.669569	-0.30508	0.735796	54.9145	1.30602	-1.69294	0.998154
55	0.666518	-0.297869	0.730049	55.6445	1.30602	-1.69294	0.998154
56	0.663539	-0.29079	0.724461	56.369	1.30602	-1.69294	0.998154
57	0.660631	-0.283839	0.719026	57.088	1.30602	-1.69294	0.998154
58	0.657793	-0.277015	0.713743	57.8017	1.30602	-1.69294	0.998154
59	0.655023	-0.270316	0.708608	58.5104	1.30602	-1.69294	0.998154
60	0.65232	-0.263738	0.703618	59.214	1.30602	-1.69294	0.998154
61	0.649682	-0.257279	0.69877	59.9127	1.30602	-1.69294	0.998154
62	0.647109	-0.250938	0.694061	60.6068	1.30602	-1.69294	0.998154
63	0.6446	-0.244712	0.689488	61.2963	1.30602	-1.69294	0.998154
64	0.642153	-0.2386	0.685048	61.9813	1.30602	-1.69294	0.998154
65	0.639767	-0.232598	0.680737	62.6621	1.30602	-1.69294	0.998154
66	0.637441	-0.226705	0.676554	63.3386	1.30602	-1.69294	0.998154
67	0.635174	-0.220918	0.672496	64.0111	1.30602	-1.69294	0.998154
68	0.632965	-0.215237	0.668559	64.6797	1.30602	-1.69294	0.998154
69	0.630812	-0.209659	0.664741	65.3444	1.30602	-1.69294	0.998154
70	0.628716	-0.204181	0.66104	66.0055	1.30602	-1.69294	0.998154
71	0.626674	-0.198803	0.657452	66.6629	1.30602	-1.69294	0.998154
72	0.624686	-0.193521	0.653975	67.3169	1.30602	-1.69294	0.998154
73	0.622751	-0.188336	0.650607	67.9675	1.30602	-1.69294	0.998154
74	0.620867	-0.183244	0.647344	68.6148	1.30602	-1.69294	0.998154
75	0.619035	-0.178244	0.644186	69.259	1.30602	-1.69294	0.998154
76	0.617252	-0.173334	0.641128	69.9002	1.30602	-1.69294	0.998154
77	0.615519	-0.168512	0.638169	70.5383	1.30602	-1.69294	0.998154
78	0.613834	-0.163778	0.635307	71.1736	1.30602	-1.69294	0.998154
79	0.612196	-0.159128	0.632539	71.8062	1.30602	-1.69294	0.998154
80	0.610605	-0.154563	0.629864	72.436	1.30602	-1.69294	0.998154
81	0.609059	-0.150079	0.627278	73.0633	1.30602	-1.69294	0.998154
82	0.607559	-0.145677	0.624779	73.6881	1.30602	-1.69294	0.998154
83	0.606102	-0.141353	0.622366	74.3105	1.30602	-1.69294	0.998154
84	0.604688	-0.137107	0.620037	74.9305	1.30602	-1.69294	0.998154
85	0.603317	-0.132937	0.617789	75.5483	1.30602	-1.69294	0.998154
86	0.601988	-0.128841	0.615621	76.1639	1.30602	-1.69294	0.998154
87	0.600699	-0.124819	0.61353	76.7774	1.30602	-1.69294	0.998154
88	0.599451	-0.120869	0.611515	77.389	1.30602	-1.69294	0.998154
89	0.598243	-0.11699	0.609574	77.9985	1.30602	-1.69294	0.998154
90	0.597073	-0.11318	0.607705	78.6062	1.30602	-1.69294	0.998154
91	0.595941	-0.109438	0.605906	79.2121	1.30602	-1.69294	0.998154
92	0.594846	-0.105763	0.604176	79.8163	1.30602	-1.69294	0.998154
93	0.593789	-0.102153	0.602512	80.4188	1.30602	-1.69294	0.998154
94	0.592767	-0.0986082	0.600913	81.0197	1.30602	-1.69294	0.998154
95	0.591781	-0.095126	0.599378	81.6191	1.30602	-1.69294	0.998154
96	0.59083	-0.0917057	0.597905	82.217	1.30602	-1.69294	0.998154
97	0.589913	-0.0883462	0.596492	82.8135	1.30602	-1.69294	0.998154
98	0.589029	-0.0850463	0.595137	83.4086	1.30602	-1.69294	0.998154
99	0.588179	-0.081805	0.593841	84.0025	1.30602	-1.69294	0.998154


t	x[0]	x[1]	P	theta[0]	theta[1]	theta[2]
0	0.99	-0.98	1.39302	1.39302	1.30602	-1.69394	0.999154
1	0.9802	-0.96037	1.37226	2.76528	1.30602	-1.69394	0.999154
2	0.970596	-0.941103	1.35194	4.11722	1.30602	-1.69394	0.999154
3	0.961185	-0.922191	1.33203	5.44925	1.30602	-1.69394	0.999154
4	0.951963	-0.903629	1.31255	6.7618	1.30602	-1.69394	0.999154
5	0.942927	-0.88541	1.29347	8.05527	1.30602	-1.69394	0.999154
6	0.934073	-0.867526	1.27479	9.33006	1.30602	-1.69394	0.999154
7	0.925398	-0.849973	1.25651	10.5866	1.30602	-1.69394	0.999154
