
Current theta : [ -5.35825 , 3.4444 ] 


t	x[0]	x[1]	P	theta[0]	theta[1]	theta[2]
0	0.999	0.160138	1.01175	1.01175	-5.35825	3.4444	0
1	0.997399	0.218138	1.02097	2.03273	-5.35825	3.4444	0
2	0.995217	0.27403	1.03225	3.06498	-5.35825	3.4444	0
3	0.992477	0.327844	1.04522	4.11021	-5.35825	3.4444	0
4	0.989199	0.379606	1.05954	5.16974	-5.35825	3.4444	0
5	0.985402	0.429345	1.07487	6.24462	-5.35825	3.4444	0
6	0.981109	0.477087	1.09096	7.33557	-5.35825	3.4444	0
7	0.976338	0.522857	1.10753	8.4431	-5.35825	3.4444	0
8	0.97111	0.566681	1.12436	9.56746	-5.35825	3.4444	0
9	0.965443	0.608585	1.14125	10.7087	-5.35825	3.4444	0
10	0.959357	0.648595	1.15803	11.8667	-5.35825	3.4444	0
11	0.952871	0.686736	1.17455	13.0413	-5.35825	3.4444	0
12	0.946004	0.723036	1.19067	14.232	-5.35825	3.4444	0
13	0.938773	0.757521	1.20629	15.4383	-5.35825	3.4444	0
14	0.931198	0.79022	1.2213	16.6596	-5.35825	3.4444	0
15	0.923296	0.821159	1.23563	17.8952	-5.35825	3.4444	0
16	0.915084	0.850369	1.2492	19.1444	-5.35825	3.4444	0
17	0.906581	0.877879	1.26197	20.4064	-5.35825	3.4444	0
18	0.897802	0.903721	1.27388	21.6802	-5.35825	3.4444	0
19	0.888765	0.927925	1.28489	22.9651	-5.35825	3.4444	0
20	0.879485	0.950523	1.29499	24.2601	-5.35825	3.4444	0
21	0.86998	0.97155	1.30414	25.5642	-5.35825	3.4444	0
22	0.860265	0.99104	1.31233	26.8766	-5.35825	3.4444	0
23	0.850354	1.00903	1.31956	28.1961	-5.35825	3.4444	0
24	0.840264	1.02554	1.32581	29.522	-5.35825	3.4444	0
25	0.830008	1.04063	1.3311	30.8531	-5.35825	3.4444	0
26	0.819602	1.05433	1.33542	32.1885	-5.35825	3.4444	0
27	0.809059	1.06666	1.33878	33.5273	-5.35825	3.4444	0
28	0.798392	1.07768	1.3412	34.8685	-5.35825	3.4444	0
29	0.787615	1.08742	1.34269	36.2111	-5.35825	3.4444	0
30	0.776741	1.09591	1.34326	37.5544	-5.35825	3.4444	0
31	0.765782	1.1032	1.34294	38.8973	-5.35825	3.4444	0
32	0.75475	1.10933	1.34174	40.2391	-5.35825	3.4444	0
33	0.743657	1.11434	1.33969	41.5788	-5.35825	3.4444	0
34	0.732513	1.11826	1.33682	42.9156	-5.35825	3.4444	0
35	0.721331	1.12113	1.33314	44.2487	-5.35825	3.4444	0
36	0.71012	1.123	1.32869	45.5774	-5.35825	3.4444	0
37	0.69889	1.12391	1.32348	46.9009	-5.35825	3.4444	0
38	0.68765	1.12388	1.31756	48.2185	-5.35825	3.4444	0
39	0.676412	1.12297	1.31095	49.5294	-5.35825	3.4444	0
40	0.665182	1.12121	1.30368	50.8331	-5.35825	3.4444	0
41	0.65397	1.11863	1.29577	52.1289	-5.35825	3.4444	0
42	0.642784	1.11528	1.28725	53.4161	-5.35825	3.4444	0
43	0.631631	1.11119	1.27816	54.6943	-5.35825	3.4444	0
44	0.620519	1.1064	1.26853	55.9628	-5.35825	3.4444	0
45	0.609455	1.10094	1.25837	57.2212	-5.35825	3.4444	0
46	0.598446	1.09485	1.24773	58.4689	-5.35825	3.4444	0
47	0.587497	1.08816	1.23663	59.7055	-5.35825	3.4444	0
48	0.576616	1.08091	1.22509	60.9306	-5.35825	3.4444	0
49	0.565806	1.07312	1.21315	62.1438	-5.35825	3.4444	0
50	0.555075	1.06484	1.20083	63.3446	-5.35825	3.4444	0
51	0.544427	1.05609	1.18816	64.5328	-5.35825	3.4444	0
52	0.533866	1.0469	1.17516	65.7079	-5.35825	3.4444	0
53	0.523397	1.0373	1.16187	66.8698	-5.35825	3.4444	0
54	0.513024	1.02732	1.14829	68.0181	-5.35825	3.4444	0
55	0.502751	1.01698	1.13447	69.1525	-5.35825	3.4444	0
56	0.492581	1.00632	1.12041	70.273	-5.35825	3.4444	0
57	0.482518	0.995357	1.10615	71.3791	-5.35825	3.4444	0
58	0.472564	0.984116	1.0917	72.4708	-5.35825	3.4444	0
59	0.462723	0.972623	1.07708	73.5479	-5.35825	3.4444	0
60	0.452997	0.960899	1.06232	74.6102	-5.35825	3.4444	0
61	0.443388	0.948967	1.04744	75.6576	-5.35825	3.4444	0
62	0.433898	0.936849	1.03245	76.6901	-5.35825	3.4444	0
63	0.42453	0.924563	1.01737	77.7075	-5.35825	3.4444	0
64	0.415284	0.912131	1.00222	78.7097	-5.35825	3.4444	0
65	0.406163	0.89957	0.987013	79.6967	-5.35825	3.4444	0
66	0.397167	0.886898	0.971766	80.6685	-5.35825	3.4444	0
67	0.388298	0.874133	0.956495	81.625	-5.35825	3.4444	0
68	0.379557	0.86129	0.941214	82.5662	-5.35825	3.4444	0
69	0.370944	0.848384	0.925935	83.4921	-5.35825	3.4444	0
70	0.36246	0.835432	0.910672	84.4028	-5.35825	3.4444	0
71	0.354106	0.822445	0.895437	85.2982	-5.35825	3.4444	0
72	0.345881	0.809439	0.880241	86.1785	-5.35825	3.4444	0
73	0.337787	0.796424	0.865096	87.0436	-5.35825	3.4444	0
74	0.329822	0.783414	0.850012	87.8936	-5.35825	3.4444	0
75	0.321988	0.770419	0.834998	88.7286	-5.35825	3.4444	0
76	0.314284	0.75745	0.820064	89.5486	-5.35825	3.4444	0
77	0.30671	0.744517	0.805218	90.3538	-5.35825	3.4444	0
78	0.299264	0.73163	0.790469	91.1443	-5.35825	3.4444	0
79	0.291948	0.718796	0.775823	91.9201	-5.35825	3.4444	0
80	0.28476	0.706025	0.761289	92.6814	-5.35825	3.4444	0
81	0.2777	0.693325	0.746871	93.4283	-5.35825	3.4444	0
82	0.270767	0.680702	0.732578	94.1609	-5.35825	3.4444	0
83	0.26396	0.668164	0.718414	94.8793	-5.35825	3.4444	0
84	0.257278	0.655717	0.704384	95.5837	-5.35825	3.4444	0
85	0.250721	0.643367	0.690494	96.2742	-5.35825	3.4444	0
86	0.244287	0.631119	0.676748	96.9509	-5.35825	3.4444	0
87	0.237976	0.618978	0.663149	97.6141	-5.35825	3.4444	0
88	0.231786	0.60695	0.649703	98.2638	-5.35825	3.4444	0
89	0.225717	0.595039	0.636411	98.9002	-5.35825	3.4444	0
90	0.219766	0.583247	0.623277	99.5235	-5.35825	3.4444	0
91	0.213934	0.57158	0.610305	100.134	-5.35825	3.4444	0
92	0.208218	0.560041	0.597496	100.731	-5.35825	3.4444	0
93	0.202618	0.548633	0.584852	101.316	-5.35825	3.4444	0
94	0.197131	0.537357	0.572375	101.888	-5.35825	3.4444	0
95	0.191758	0.526218	0.560068	102.449	-5.35825	3.4444	0
96	0.186496	0.515217	0.547931	102.996	-5.35825	3.4444	0
97	0.181343	0.504355	0.535966	103.532	-5.35825	3.4444	0
98	0.1763	0.493636	0.524174	104.057	-5.35825	3.4444	0
99	0.171364	0.48306	0.512554	104.569	-5.35825	3.4444	0
100	0.166533	0.472628	0.501109	105.07	-5.35825	3.4444	0
101	0.161807	0.462342	0.489838	105.56	-5.35825	3.4444	0
102	0.157183	0.452203	0.478742	106.039	-5.35825	3.4444	0
103	0.152661	0.442211	0.467821	106.507	-5.35825	3.4444	0
104	0.148239	0.432367	0.457073	106.964	-5.35825	3.4444	0
105	0.143915	0.422671	0.446501	107.41	-5.35825	3.4444	0
106	0.139689	0.413124	0.436101	107.846	-5.35825	3.4444	0
107	0.135557	0.403726	0.425876	108.272	-5.35825	3.4444	0
108	0.13152	0.394476	0.415823	108.688	-5.35825	3.4444	0
109	0.127575	0.385374	0.405942	109.094	-5.35825	3.4444	0
110	0.123722	0.376421	0.396232	109.49	-5.35825	3.4444	0
111	0.119957	0.367615	0.386692	109.877	-5.35825	3.4444	0
112	0.116281	0.358957	0.377322	110.254	-5.35825	3.4444	0
113	0.112692	0.350446	0.368119	110.622	-5.35825	3.4444	0
114	0.109187	0.34208	0.359083	110.981	-5.35825	3.4444	0
115	0.105766	0.33386	0.350213	111.332	-5.35825	3.4444	0
116	0.102428	0.325784	0.341507	111.673	-5.35825	3.4444	0
117	0.09917	0.317852	0.332963	112.006	-5.35825	3.4444	0
118	0.0959915	0.310062	0.324581	112.331	-5.35825	3.4444	0
119	0.0928909	0.302413	0.316358	112.647	-5.35825	3.4444	0
120	0.0898668	0.294905	0.308294	112.955	-5.35825	3.4444	0
121	0.0869177	0.287536	0.300386	113.256	-5.35825	3.4444	0
122	0.0840424	0.280305	0.292633	113.548	-5.35825	3.4444	0
123	0.0812393	0.273211	0.285033	113.833	-5.35825	3.4444	0
124	0.0785072	0.266251	0.277585	114.111	-5.35825	3.4444	0
125	0.0758447	0.259426	0.270286	114.381	-5.35825	3.4444	0
126	0.0732504	0.252734	0.263135	114.644	-5.35825	3.4444	0
127	0.0707231	0.246172	0.25613	114.901	-5.35825	3.4444	0
128	0.0682614	0.23974	0.249269	115.15	-5.35825	3.4444	0
129	0.065864	0.233437	0.242551	115.392	-5.35825	3.4444	0
130	0.0635296	0.22726	0.235972	115.628	-5.35825	3.4444	0
131	0.061257	0.221208	0.229533	115.858	-5.35825	3.4444	0
132	0.0590449	0.21528	0.22323	116.081	-5.35825	3.4444	0
133	0.0568921	0.209474	0.217062	116.298	-5.35825	3.4444	0
134	0.0547974	0.203788	0.211027	116.509	-5.35825	3.4444	0
135	0.0527595	0.198221	0.205122	116.714	-5.35825	3.4444	0
136	0.0507773	0.192771	0.199347	116.914	-5.35825	3.4444	0
137	0.0488496	0.187437	0.193698	117.107	-5.35825	3.4444	0
138	0.0469752	0.182217	0.188175	117.296	-5.35825	3.4444	0
139	0.045153	0.17711	0.182775	117.478	-5.35825	3.4444	0
140	0.0433819	0.172113	0.177496	117.656	-5.35825	3.4444	0
141	0.0416608	0.167225	0.172336	117.828	-5.35825	3.4444	0
142	0.0399886	0.162445	0.167294	117.995	-5.35825	3.4444	0
143	0.0383641	0.15777	0.162367	118.158	-5.35825	3.4444	0
144	0.0367864	0.1532	0.157554	118.315	-5.35825	3.4444	0
145	0.0352544	0.148732	0.152853	118.468	-5.35825	3.4444	0
146	0.0337671	0.144365	0.148262	118.616	-5.35825	3.4444	0
147	0.0323235	0.140098	0.143778	118.76	-5.35825	3.4444	0
148	0.0309225	0.135928	0.139401	118.9	-5.35825	3.4444	0
149	0.0295632	0.131854	0.135128	119.035	-5.35825	3.4444	0
150	0.0282447	0.127875	0.130957	119.166	-5.35825	3.4444	0
151	0.0269659	0.123988	0.126887	119.293	-5.35825	3.4444	0
152	0.025726	0.120193	0.122916	119.416	-5.35825	3.4444	0
153	0.0245241	0.116488	0.119041	119.535	-5.35825	3.4444	0
154	0.0233592	0.112871	0.115263	119.65	-5.35825	3.4444	0
155	0.0222305	0.10934	0.111577	119.761	-5.35825	3.4444	0
156	0.0211371	0.105895	0.107984	119.869	-5.35825	3.4444	0
157	0.0200782	0.102533	0.10448	119.974	-5.35825	3.4444	0
158	0.0190528	0.0992527	0.101065	120.075	-5.35825	3.4444	0
159	0.0180603	0.0960533	0.0977365	120.173	-5.35825	3.4444	0
160	0.0170998	0.092933	0.0944931	120.267	-5.35825	3.4444	0
161	0.0161705	0.0898902	0.091333	120.359	-5.35825	3.4444	0
162	0.0152716	0.0869235	0.0882548	120.447	-5.35825	3.4444	0
163	0.0144023	0.0840314	0.0852567	120.532	-5.35825	3.4444	0
164	0.013562	0.0812127	0.0823373	120.614	-5.35825	3.4444	0
165	0.0127499	0.0784657	0.0794948	120.694	-5.35825	3.4444	0
166	0.0119652	0.0757892	0.0767279	120.771	-5.35825	3.4444	0
167	0.0112073	0.0731817	0.0740349	120.845	-5.35825	3.4444	0
168	0.0104755	0.0706419	0.0714143	120.916	-5.35825	3.4444	0
169	0.00976909	0.0681684	0.0688648	120.985	-5.35825	3.4444	0
170	0.00908741	0.0657599	0.0663848	121.051	-5.35825	3.4444	0
171	0.00842981	0.0634151	0.063973	121.115	-5.35825	3.4444	0
172	0.00779566	0.0611327	0.0616278	121.177	-5.35825	3.4444	0
173	0.00718433	0.0589115	0.0593479	121.236	-5.35825	3.4444	0
174	0.00659522	0.05675	0.057132	121.293	-5.35825	3.4444	0
175	0.00602772	0.0546472	0.0549786	121.348	-5.35825	3.4444	0
176	0.00548124	0.0526017	0.0528865	121.401	-5.35825	3.4444	0
177	0.00495523	0.0506124	0.0508544	121.452	-5.35825	3.4444	0
178	0.0044491	0.0486781	0.048881	121.501	-5.35825	3.4444	0
179	0.00396232	0.0467975	0.046965	121.548	-5.35825	3.4444	0
180	0.00349435	0.0449696	0.0451052	121.593	-5.35825	3.4444	0
181	0.00304465	0.0431931	0.0433003	121.636	-5.35825	3.4444	0
182	0.00261272	0.0414671	0.0415493	121.678	-5.35825	3.4444	0
183	0.00219805	0.0397902	0.0398509	121.718	-5.35825	3.4444	0
184	0.00180015	0.0381615	0.038204	121.756	-5.35825	3.4444	0
185	0.00141853	0.0365799	0.0366074	121.793	-5.35825	3.4444	0
186	0.00105273	0.0350444	0.0350602	121.828	-5.35825	3.4444	0
187	0.000702288	0.0335538	0.0335612	121.861	-5.35825	3.4444	0
188	0.00036675	0.0321072	0.0321093	121.893	-5.35825	3.4444	0
189	4.5678e-05	0.0307035	0.0307036	121.924	-5.35825	3.4444	0
190	-0.000261357	0.0293419	0.029343	121.953	-5.35825	3.4444	0
191	-0.000554776	0.0280212	0.0280267	121.981	-5.35825	3.4444	0
192	-0.000834988	0.0267405	0.0267535	122.008	-5.35825	3.4444	0
193	-0.00110239	0.025499	0.0255228	122.034	-5.35825	3.4444	0
194	-0.00135738	0.0242956	0.0243335	122.058	-5.35825	3.4444	0
195	-0.00160034	0.0231295	0.0231848	122.081	-5.35825	3.4444	0
196	-0.00183163	0.0219998	0.0220759	122.103	-5.35825	3.4444	0
197	-0.00205163	0.0209056	0.021006	122.124	-5.35825	3.4444	0
198	-0.00226069	0.019846	0.0199743	122.144	-5.35825	3.4444	0
199	-0.00245915	0.0188202	0.0189802	122.163	-5.35825	3.4444	0
200	-0.00264735	0.0178274	0.0180229	122.181	-5.35825	3.4444	0
201	-0.00282562	0.0168668	0.0171018	122.198	-5.35825	3.4444	0
202	-0.00299429	0.0159375	0.0162163	122.215	-5.35825	3.4444	0
203	-0.00315367	0.0150388	0.0153659	122.23	-5.35825	3.4444	0
204	-0.00330405	0.0141699	0.01455	122.244	-5.35825	3.4444	0
205	-0.00344575	0.01333	0.0137682	122.258	-5.35825	3.4444	0
206	-0.00357905	0.0125185	0.0130201	122.271	-5.35825	3.4444	0
207	-0.00370424	0.0117346	0.0123053	122.284	-5.35825	3.4444	0
208	-0.00382158	0.0109775	0.0116237	122.295	-5.35825	3.4444	0
209	-0.00393136	0.0102466	0.0109749	122.306	-5.35825	3.4444	0
210	-0.00403382	0.00954127	0.0103589	122.316	-5.35825	3.4444	0
211	-0.00412924	0.00886074	0.00977565	122.326	-5.35825	3.4444	0
212	-0.00421784	0.00820439	0.00922508	122.335	-5.35825	3.4444	0
213	-0.00429989	0.00757157	0.00870734	122.344	-5.35825	3.4444	0
214	-0.0043756	0.00696166	0.00822257	122.352	-5.35825	3.4444	0
215	-0.00444522	0.00637405	0.007771	122.36	-5.35825	3.4444	0
216	-0.00450896	0.00580812	0.00735289	122.368	-5.35825	3.4444	0
217	-0.00456704	0.0052633	0.00696851	122.375	-5.35825	3.4444	0
218	-0.00461967	0.00473899	0.00661811	122.381	-5.35825	3.4444	0
219	-0.00466706	0.00423464	0.00630188	122.387	-5.35825	3.4444	0
220	-0.00470941	0.0037497	0.00601986	122.393	-5.35825	3.4444	0
221	-0.00474691	0.00328361	0.00577193	122.399	-5.35825	3.4444	0
222	-0.00477974	0.00283585	0.0055577	122.405	-5.35825	3.4444	0
223	-0.0048081	0.00240591	0.00537645	122.41	-5.35825	3.4444	0
224	-0.00483216	0.00199327	0.00522713	122.415	-5.35825	3.4444	0
225	-0.00485209	0.00159744	0.00510829	122.42	-5.35825	3.4444	0
226	-0.00486807	0.00121794	0.00501811	122.426	-5.35825	3.4444	0
227	-0.00488025	0.000854282	0.00495445	122.43	-5.35825	3.4444	0
228	-0.00488879	0.000506016	0.00491491	122.435	-5.35825	3.4444	0
229	-0.00489385	0.000172686	0.0048969	122.44	-5.35825	3.4444	0
230	-0.00489558	-0.000146152	0.00489776	122.445	-5.35825	3.4444	0
231	-0.00489412	-0.00045093	0.00491485	122.45	-5.35825	3.4444	0
232	-0.00488961	-0.000742069	0.0049456	122.455	-5.35825	3.4444	0
233	-0.00488219	-0.00101998	0.0049876	122.46	-5.35825	3.4444	0
234	-0.00487199	-0.00128507	0.00503862	122.465	-5.35825	3.4444	0
235	-0.00485914	-0.00153773	0.00509665	122.47	-5.35825	3.4444	0
236	-0.00484376	-0.00177834	0.00515989	122.475	-5.35825	3.4444	0
237	-0.00482598	-0.00200729	0.00522678	122.481	-5.35825	3.4444	0
238	-0.0048059	-0.00222492	0.00529594	122.486	-5.35825	3.4444	0
239	-0.00478365	-0.00243161	0.0053662	122.491	-5.35825	3.4444	0
240	-0.00475934	-0.0026277	0.00543655	122.497	-5.35825	3.4444	0
241	-0.00473306	-0.00281352	0.00550616	122.502	-5.35825	3.4444	0
242	-0.00470492	-0.00298942	0.00557431	122.508	-5.35825	3.4444	0
243	-0.00467503	-0.00315571	0.00564043	122.513	-5.35825	3.4444	0
244	-0.00464347	-0.00331271	0.00570402	122.519	-5.35825	3.4444	0
245	-0.00461035	-0.00346072	0.00576471	122.525	-5.35825	3.4444	0
246	-0.00457574	-0.00360005	0.00582218	122.531	-5.35825	3.4444	0
247	-0.00453974	-0.00373099	0.00587618	122.537	-5.35825	3.4444	0
248	-0.00450243	-0.00385381	0.00592653	122.542	-5.35825	3.4444	0
249	-0.00446389	-0.00396881	0.00597309	122.548	-5.35825	3.4444	0
250	-0.0044242	-0.00407625	0.00601576	122.554	-5.35825	3.4444	0
251	-0.00438344	-0.00417639	0.00605448	122.561	-5.35825	3.4444	0
252	-0.00434168	-0.00426948	0.00608922	122.567	-5.35825	3.4444	0
253	-0.00429898	-0.00435578	0.00611997	122.573	-5.35825	3.4444	0
254	-0.00425542	-0.00443553	0.00614676	122.579	-5.35825	3.4444	0
255	-0.00421107	-0.00450897	0.0061696	122.585	-5.35825	3.4444	0
256	-0.00416598	-0.00457633	0.00618855	122.591	-5.35825	3.4444	0
257	-0.00412022	-0.00463782	0.00620367	122.597	-5.35825	3.4444	0
258	-0.00407384	-0.00469367	0.00621504	122.604	-5.35825	3.4444	0
259	-0.0040269	-0.00474409	0.00622273	122.61	-5.35825	3.4444	0
260	-0.00397946	-0.00478929	0.00622683	122.616	-5.35825	3.4444	0
261	-0.00393157	-0.00482945	0.00622743	122.622	-5.35825	3.4444	0
262	-0.00388327	-0.00486479	0.00622463	122.629	-5.35825	3.4444	0
263	-0.00383462	-0.00489549	0.00621854	122.635	-5.35825	3.4444	0
264	-0.00378567	-0.00492173	0.00620925	122.641	-5.35825	3.4444	0
265	-0.00373645	-0.00494369	0.00619687	122.647	-5.35825	3.4444	0
266	-0.00368701	-0.00496155	0.00618151	122.653	-5.35825	3.4444	0
267	-0.0036374	-0.00497547	0.00616327	122.66	-5.35825	3.4444	0
268	-0.00358764	-0.00498561	0.00614227	122.666	-5.35825	3.4444	0
269	-0.00353779	-0.00499214	0.00611862	122.672	-5.35825	3.4444	0
270	-0.00348787	-0.00499522	0.0060924	122.678	-5.35825	3.4444	0
271	-0.00343792	-0.00499498	0.00606375	122.684	-5.35825	3.4444	0
272	-0.00338797	-0.00499157	0.00603275	122.69	-5.35825	3.4444	0
273	-0.00333805	-0.00498514	0.00599952	122.696	-5.35825	3.4444	0
274	-0.0032882	-0.00497582	0.00596415	122.702	-5.35825	3.4444	0
275	-0.00323844	-0.00496375	0.00592674	122.708	-5.35825	3.4444	0
276	-0.0031888	-0.00494905	0.00588741	122.714	-5.35825	3.4444	0
277	-0.00313931	-0.00493185	0.00584623	122.72	-5.35825	3.4444	0
278	-0.00308999	-0.00491226	0.00580331	122.725	-5.35825	3.4444	0
279	-0.00304087	-0.00489041	0.00575873	122.731	-5.35825	3.4444	0
280	-0.00299197	-0.00486641	0.0057126	122.737	-5.35825	3.4444	0
281	-0.0029433	-0.00484036	0.00566499	122.743	-5.35825	3.4444	0
282	-0.0028949	-0.00481238	0.005616	122.748	-5.35825	3.4444	0
283	-0.00284678	-0.00478256	0.0055657	122.754	-5.35825	3.4444	0
284	-0.00279895	-0.00475101	0.00551418	122.759	-5.35825	3.4444	0
285	-0.00275144	-0.00471782	0.00546153	122.765	-5.35825	3.4444	0
286	-0.00270426	-0.00468309	0.0054078	122.77	-5.35825	3.4444	0
287	-0.00265743	-0.0046469	0.00535309	122.775	-5.35825	3.4444	0
288	-0.00261096	-0.00460933	0.00529746	122.781	-5.35825	3.4444	0
289	-0.00256487	-0.00457049	0.00524098	122.786	-5.35825	3.4444	0
290	-0.00251916	-0.00453044	0.00518373	122.791	-5.35825	3.4444	0
291	-0.00247386	-0.00448926	0.00512576	122.796	-5.35825	3.4444	0
292	-0.00242897	-0.00444704	0.00506715	122.801	-5.35825	3.4444	0
293	-0.0023845	-0.00440383	0.00500795	122.806	-5.35825	3.4444	0
294	-0.00234046	-0.00435972	0.00494822	122.811	-5.35825	3.4444	0
295	-0.00229686	-0.00431477	0.00488803	122.816	-5.35825	3.4444	0
296	-0.00225371	-0.00426904	0.00482742	122.821	-5.35825	3.4444	0
297	-0.00221102	-0.00422261	0.00476645	122.826	-5.35825	3.4444	0
298	-0.0021688	-0.00417552	0.00470517	122.83	-5.35825	3.4444	0
299	-0.00212704	-0.00412784	0.00464364	122.835	-5.35825	3.4444	0
300	-0.00208576	-0.00407962	0.00458189	122.84	-5.35825	3.4444	0
301	-0.00204497	-0.00403093	0.00451999	122.844	-5.35825	3.4444	0
302	-0.00200466	-0.0039818	0.00445796	122.849	-5.35825	3.4444	0
303	-0.00196484	-0.0039323	0.00439585	122.853	-5.35825	3.4444	0
304	-0.00192552	-0.00388246	0.00433372	122.857	-5.35825	3.4444	0
305	-0.00188669	-0.00383233	0.00427158	122.862	-5.35825	3.4444	0
306	-0.00184837	-0.00378197	0.00420949	122.866	-5.35825	3.4444	0
307	-0.00181055	-0.00373141	0.00414747	122.87	-5.35825	3.4444	0
308	-0.00177323	-0.00368069	0.00408556	122.874	-5.35825	3.4444	0
309	-0.00173643	-0.00362985	0.0040238	122.878	-5.35825	3.4444	0
310	-0.00170013	-0.00357893	0.00396222	122.882	-5.35825	3.4444	0
311	-0.00166434	-0.00352797	0.00390084	122.886	-5.35825	3.4444	0
312	-0.00162906	-0.00347699	0.0038397	122.89	-5.35825	3.4444	0
313	-0.00159429	-0.00342604	0.00377883	122.894	-5.35825	3.4444	0
314	-0.00156003	-0.00337514	0.00371824	122.897	-5.35825	3.4444	0
315	-0.00152628	-0.00332433	0.00365796	122.901	-5.35825	3.4444	0
316	-0.00149303	-0.00327363	0.00359803	122.905	-5.35825	3.4444	0
317	-0.0014603	-0.00322307	0.00353845	122.908	-5.35825	3.4444	0
318	-0.00142807	-0.00317267	0.00347925	122.912	-5.35825	3.4444	0
319	-0.00139634	-0.00312246	0.00342046	122.915	-5.35825	3.4444	0
320	-0.00136512	-0.00307247	0.00336209	122.918	-5.35825	3.4444	0
321	-0.00133439	-0.00302272	0.00330415	122.922	-5.35825	3.4444	0
322	-0.00130416	-0.00297322	0.00324667	122.925	-5.35825	3.4444	0
323	-0.00127443	-0.002924	0.00318966	122.928	-5.35825	3.4444	0
324	-0.00124519	-0.00287508	0.00313314	122.931	-5.35825	3.4444	0
325	-0.00121644	-0.00282647	0.00307712	122.934	-5.35825	3.4444	0
326	-0.00118818	-0.00277819	0.00302161	122.937	-5.35825	3.4444	0
327	-0.0011604	-0.00273027	0.00296663	122.94	-5.35825	3.4444	0
328	-0.00113309	-0.0026827	0.00291218	122.943	-5.35825	3.4444	0
329	-0.00110627	-0.00263552	0.00285828	122.946	-5.35825	3.4444	0
330	-0.00107991	-0.00258872	0.00280494	122.949	-5.35825	3.4444	0
331	-0.00105402	-0.00254233	0.00275217	122.952	-5.35825	3.4444	0
332	-0.0010286	-0.00249636	0.00269997	122.954	-5.35825	3.4444	0
333	-0.00100364	-0.00245081	0.00264835	122.957	-5.35825	3.4444	0
