
Current theta : [ 1.23606 , -1.75676 , 0.968702 ] 


t	x[0]	x[1]	P	theta[0]	theta[1]	theta[2]
0	0.99	-0.980072	1.39307	1.39307	1.23606	-1.75676	0.968702
1	0.980199	-0.960523	1.37237	2.76544	1.23606	-1.75676	0.968702
2	0.970594	-0.941347	1.3521	4.11754	1.23606	-1.75676	0.968702
3	0.961181	-0.922536	1.33227	5.44981	1.23606	-1.75676	0.968702
4	0.951955	-0.904082	1.31285	6.76266	1.23606	-1.75676	0.968702
5	0.942914	-0.885979	1.29385	8.05651	1.23606	-1.75676	0.968702
6	0.934055	-0.868219	1.27525	9.33176	1.23606	-1.75676	0.968702
7	0.925372	-0.850796	1.25705	10.5888	1.23606	-1.75676	0.968702
8	0.916864	-0.833704	1.23923	11.828	1.23606	-1.75676	0.968702
9	0.908527	-0.816935	1.2218	13.0498	1.23606	-1.75676	0.968702
10	0.900358	-0.800483	1.20475	14.2546	1.23606	-1.75676	0.968702
11	0.892353	-0.784342	1.18806	15.4427	1.23606	-1.75676	0.968702
12	0.88451	-0.768507	1.17173	16.6144	1.23606	-1.75676	0.968702
13	0.876825	-0.75297	1.15576	17.7702	1.23606	-1.75676	0.968702
14	0.869295	-0.737727	1.14014	18.9103	1.23606	-1.75676	0.968702
15	0.861918	-0.722771	1.12486	20.0351	1.23606	-1.75676	0.968702
16	0.85469	-0.708098	1.10991	21.1451	1.23606	-1.75676	0.968702
17	0.847609	-0.6937	1.09529	22.2403	1.23606	-1.75676	0.968702
18	0.840672	-0.679574	1.08099	23.3213	1.23606	-1.75676	0.968702
19	0.833876	-0.665713	1.06702	24.3884	1.23606	-1.75676	0.968702
20	0.827219	-0.652113	1.05335	25.4417	1.23606	-1.75676	0.968702
21	0.820698	-0.638769	1.03999	26.4817	1.23606	-1.75676	0.968702
22	0.81431	-0.625675	1.02692	27.5086	1.23606	-1.75676	0.968702
23	0.808054	-0.612827	1.01415	28.5228	1.23606	-1.75676	0.968702
24	0.801925	-0.60022	1.00167	29.5244	1.23606	-1.75676	0.968702
25	0.795923	-0.58785	0.989475	30.5139	1.23606	-1.75676	0.968702
26	0.790045	-0.575711	0.977555	31.4915	1.23606	-1.75676	0.968702
27	0.784288	-0.5638	0.965908	32.4574	1.23606	-1.75676	0.968702
28	0.77865	-0.552112	0.954527	33.4119	1.23606	-1.75676	0.968702
29	0.773128	-0.540642	0.94341	34.3553	1.23606	-1.75676	0.968702
30	0.767722	-0.529388	0.932549	35.2879	1.23606	-1.75676	0.968702
31	0.762428	-0.518343	0.921942	36.2098	1.23606	-1.75676	0.968702
32	0.757245	-0.507505	0.911582	37.1214	1.23606	-1.75676	0.968702
33	0.75217	-0.49687	0.901465	38.0229	1.23606	-1.75676	0.968702
34	0.747201	-0.486433	0.891586	38.9144	1.23606	-1.75676	0.968702
35	0.742337	-0.476191	0.881942	39.7964	1.23606	-1.75676	0.968702
36	0.737575	-0.46614	0.872527	40.6689	1.23606	-1.75676	0.968702
37	0.732913	-0.456276	0.863337	41.5322	1.23606	-1.75676	0.968702
38	0.728351	-0.446597	0.854367	42.3866	1.23606	-1.75676	0.968702
39	0.723885	-0.437097	0.845614	43.2322	1.23606	-1.75676	0.968702
40	0.719514	-0.427775	0.837073	44.0693	1.23606	-1.75676	0.968702
41	0.715236	-0.418626	0.82874	44.898	1.23606	-1.75676	0.968702
42	0.71105	-0.409647	0.820611	45.7187	1.23606	-1.75676	0.968702
43	0.706953	-0.400835	0.812682	46.5313	1.23606	-1.75676	0.968702
44	0.702945	-0.392188	0.804949	47.3363	1.23606	-1.75676	0.968702
45	0.699023	-0.383701	0.797408	48.1337	1.23606	-1.75676	0.968702
46	0.695186	-0.375371	0.790055	48.9237	1.23606	-1.75676	0.968702
47	0.691432	-0.367196	0.782887	49.7066	1.23606	-1.75676	0.968702
48	0.68776	-0.359173	0.775899	50.4825	1.23606	-1.75676	0.968702
49	0.684169	-0.351299	0.769089	51.2516	1.23606	-1.75676	0.968702
50	0.680656	-0.343571	0.762452	52.0141	1.23606	-1.75676	0.968702
51	0.67722	-0.335986	0.755985	52.7701	1.23606	-1.75676	0.968702
52	0.67386	-0.328542	0.749685	53.5197	1.23606	-1.75676	0.968702
53	0.670575	-0.321236	0.743547	54.2633	1.23606	-1.75676	0.968702
54	0.667362	-0.314065	0.73757	55.0009	1.23606	-1.75676	0.968702
55	0.664222	-0.307027	0.731748	55.7326	1.23606	-1.75676	0.968702
56	0.661151	-0.300119	0.72608	56.4587	1.23606	-1.75676	0.968702
57	0.65815	-0.293338	0.720562	57.1792	1.23606	-1.75676	0.968702
58	0.655217	-0.286683	0.71519	57.8944	1.23606	-1.75676	0.968702
59	0.65235	-0.280152	0.709961	58.6044	1.23606	-1.75676	0.968702
60	0.649548	-0.27374	0.704874	59.3093	1.23606	-1.75676	0.968702
61	0.646811	-0.267448	0.699923	60.0092	1.23606	-1.75676	0.968702
62	0.644136	-0.261271	0.695107	60.7043	1.23606	-1.75676	0.968702
63	0.641524	-0.255208	0.690423	61.3947	1.23606	-1.75676	0.968702
64	0.638972	-0.249258	0.685867	62.0806	1.23606	-1.75676	0.968702
65	0.636479	-0.243416	0.681438	62.762	1.23606	-1.75676	0.968702
66	0.634045	-0.237683	0.677131	63.4392	1.23606	-1.75676	0.968702
67	0.631668	-0.232055	0.672944	64.1121	1.23606	-1.75676	0.968702
68	0.629348	-0.226531	0.668876	64.781	1.23606	-1.75676	0.968702
69	0.627082	-0.221109	0.664922	65.4459	1.23606	-1.75676	0.968702
70	0.624871	-0.215786	0.661081	66.107	1.23606	-1.75676	0.968702
71	0.622713	-0.210561	0.657349	66.7643	1.23606	-1.75676	0.968702
72	0.620608	-0.205433	0.653725	67.4181	1.23606	-1.75676	0.968702
73	0.618553	-0.200398	0.650206	68.0683	1.23606	-1.75676	0.968702
74	0.616549	-0.195456	0.646789	68.7151	1.23606	-1.75676	0.968702
75	0.614595	-0.190605	0.643473	69.3585	1.23606	-1.75676	0.968702
76	0.612689	-0.185843	0.640254	69.9988	1.23606	-1.75676	0.968702
77	0.61083	-0.181168	0.637131	70.6359	1.23606	-1.75676	0.968702
78	0.609019	-0.176579	0.634101	71.27	1.23606	-1.75676	0.968702
79	0.607253	-0.172074	0.631162	71.9012	1.23606	-1.75676	0.968702
80	0.605532	-0.167651	0.628312	72.5295	1.23606	-1.75676	0.968702
81	0.603856	-0.16331	0.625549	73.155	1.23606	-1.75676	0.968702
82	0.602223	-0.159048	0.622871	73.7779	1.23606	-1.75676	0.968702
83	0.600632	-0.154864	0.620275	74.3982	1.23606	-1.75676	0.968702
84	0.599083	-0.150756	0.617761	75.0159	1.23606	-1.75676	0.968702
85	0.597576	-0.146724	0.615325	75.6313	1.23606	-1.75676	0.968702
86	0.596109	-0.142765	0.612966	76.2442	1.23606	-1.75676	0.968702
87	0.594681	-0.138879	0.610682	76.8549	1.23606	-1.75676	0.968702
88	0.593292	-0.135063	0.608472	77.4634	1.23606	-1.75676	0.968702
89	0.591942	-0.131317	0.606332	78.0697	1.23606	-1.75676	0.968702
90	0.590628	-0.12764	0.604263	78.674	1.23606	-1.75676	0.968702
91	0.589352	-0.124029	0.602262	79.2762	1.23606	-1.75676	0.968702
92	0.588112	-0.120484	0.600326	79.8766	1.23606	-1.75676	0.968702
93	0.586907	-0.117004	0.598456	80.475	1.23606	-1.75676	0.968702
94	0.585737	-0.113587	0.596649	81.0717	1.23606	-1.75676	0.968702
95	0.584601	-0.110232	0.594903	81.6666	1.23606	-1.75676	0.968702
96	0.583499	-0.106939	0.593217	82.2598	1.23606	-1.75676	0.968702
97	0.582429	-0.103705	0.59159	82.8514	1.23606	-1.75676	0.968702
98	0.581392	-0.100529	0.590019	83.4414	1.23606	-1.75676	0.968702
99	0.580387	-0.0974116	0.588505	84.0299	1.23606	-1.75676	0.968702


t	x[0]	x[1]	P	theta[0]	theta[1]	theta[2]
0	0.99	-0.980062	1.39306	1.39306	1.23706	-1.75676	0.968702
1	0.980199	-0.960504	1.37235	2.76542	1.23706	-1.75676	0.968702
2	0.970594	-0.941318	1.35208	4.1175	1.23706	-1.75676	0.968702
3	0.961181	-0.922497	1.33224	5.44974	1.23706	-1.75676	0.968702
4	0.951956	-0.904035	1.31282	6.76257	1.23706	-1.75676	0.968702
5	0.942916	-0.885923	1.29381	8.05638	1.23706	-1.75676	0.968702
6	0.934057	-0.868155	1.27521	9.33158	1.23706	-1.75676	0.968702
7	0.925375	-0.850724	1.257	10.5886	1.23706	-1.75676	0.968702
8	0.916868	-0.833623	1.23918	11.8278	1.23706	-1.75676	0.968702
9	0.908532	-0.816846	1.22175	13.0495	1.23706	-1.75676	0.968702
10	0.900363	-0.800387	1.20469	14.2542	1.23706	-1.75676	0.968702
11	0.892359	-0.784239	1.188	15.4422	1.23706	-1.75676	0.968702
12	0.884517	-0.768396	1.17167	16.6139	1.23706	-1.75676	0.968702
13	0.876833	-0.752853	1.15569	17.7696	1.23706	-1.75676	0.968702
14	0.869304	-0.737603	1.14007	18.9096	1.23706	-1.75676	0.968702
15	0.861928	-0.722641	1.12478	20.0344	1.23706	-1.75676	0.968702
16	0.854702	-0.70796	1.10983	21.1442	1.23706	-1.75676	0.968702
17	0.847622	-0.693557	1.09521	22.2394	1.23706	-1.75676	0.968702
18	0.840687	-0.679424	1.08091	23.3204	1.23706	-1.75676	0.968702
19	0.833893	-0.665558	1.06693	24.3873	1.23706	-1.75676	0.968702
20	0.827237	-0.651952	1.05326	25.4406	1.23706	-1.75676	0.968702
21	0.820717	-0.638602	1.0399	26.4805	1.23706	-1.75676	0.968702
22	0.814331	-0.625503	1.02683	27.5073	1.23706	-1.75676	0.968702
23	0.808076	-0.61265	1.01406	28.5214	1.23706	-1.75676	0.968702
24	0.80195	-0.600038	1.00158	29.5229	1.23706	-1.75676	0.968702
25	0.795949	-0.587663	0.989385	30.5123	1.23706	-1.75676	0.968702
26	0.790073	-0.57552	0.977465	31.4898	1.23706	-1.75676	0.968702
27	0.784318	-0.563604	0.965817	32.4556	1.23706	-1.75676	0.968702
28	0.778682	-0.551911	0.954438	33.41	1.23706	-1.75676	0.968702
29	0.773163	-0.540437	0.94332	34.3534	1.23706	-1.75676	0.968702
30	0.767758	-0.529178	0.93246	35.2858	1.23706	-1.75676	0.968702
31	0.762466	-0.51813	0.921853	36.2077	1.23706	-1.75676	0.968702
32	0.757285	-0.507288	0.911494	37.1192	1.23706	-1.75676	0.968702
33	0.752212	-0.496649	0.901378	38.0205	1.23706	-1.75676	0.968702
34	0.747246	-0.486208	0.891501	38.912	1.23706	-1.75676	0.968702
35	0.742384	-0.475962	0.881858	39.7939	1.23706	-1.75676	0.968702
36	0.737624	-0.465908	0.872444	40.6663	1.23706	-1.75676	0.968702
37	0.732965	-0.456041	0.863256	41.5296	1.23706	-1.75676	0.968702
38	0.728405	-0.446357	0.854288	42.3839	1.23706	-1.75676	0.968702
39	0.723941	-0.436855	0.845537	43.2294	1.23706	-1.75676	0.968702
40	0.719572	-0.427529	0.836998	44.0664	1.23706	-1.75676	0.968702
41	0.715297	-0.418377	0.828667	44.8951	1.23706	-1.75676	0.968702
42	0.711113	-0.409396	0.820541	45.7156	1.23706	-1.75676	0.968702
43	0.707019	-0.400581	0.812614	46.5282	1.23706	-1.75676	0.968702
44	0.703014	-0.39193	0.804884	47.3331	1.23706	-1.75676	0.968702
45	0.699094	-0.383441	0.797345	48.1305	1.23706	-1.75676	0.968702
46	0.69526	-0.375108	0.789995	48.9205	1.23706	-1.75676	0.968702
47	0.691509	-0.366931	0.78283	49.7033	1.23706	-1.75676	0.968702
48	0.687839	-0.358906	0.775846	50.4791	1.23706	-1.75676	0.968702
49	0.68425	-0.351029	0.769038	51.2482	1.23706	-1.75676	0.968702
50	0.68074	-0.343299	0.762405	52.0106	1.23706	-1.75676	0.968702
51	0.677307	-0.335712	0.755941	52.7665	1.23706	-1.75676	0.968702
52	0.67395	-0.328265	0.749644	53.5162	1.23706	-1.75676	0.968702
53	0.670667	-0.320957	0.743511	54.2597	1.23706	-1.75676	0.968702
54	0.667458	-0.313784	0.737536	54.9972	1.23706	-1.75676	0.968702
55	0.66432	-0.306743	0.731719	55.7289	1.23706	-1.75676	0.968702
56	0.661253	-0.299833	0.726054	56.455	1.23706	-1.75676	0.968702
57	0.658254	-0.293051	0.72054	57.1755	1.23706	-1.75676	0.968702
58	0.655324	-0.286395	0.715172	57.8907	1.23706	-1.75676	0.968702
59	0.65246	-0.279861	0.709948	58.6007	1.23706	-1.75676	0.968702
60	0.649661	-0.273448	0.704864	59.3055	1.23706	-1.75676	0.968702
61	0.646927	-0.267153	0.699918	60.0054	1.23706	-1.75676	0.968702
62	0.644255	-0.260975	0.695106	60.7005	1.23706	-1.75676	0.968702
63	0.641645	-0.254911	0.690426	61.391	1.23706	-1.75676	0.968702
64	0.639096	-0.248959	0.685875	62.0768	1.23706	-1.75676	0.968702
65	0.636607	-0.243116	0.68145	62.7583	1.23706	-1.75676	0.968702
66	0.634175	-0.237381	0.677147	63.4354	1.23706	-1.75676	0.968702
67	0.631802	-0.231752	0.672965	64.1084	1.23706	-1.75676	0.968702
68	0.629484	-0.226226	0.668901	64.7773	1.23706	-1.75676	0.968702
69	0.627222	-0.220803	0.664952	65.4423	1.23706	-1.75676	0.968702
70	0.625014	-0.215479	0.661115	66.1034	1.23706	-1.75676	0.968702
71	0.622859	-0.210253	0.657388	66.7608	1.23706	-1.75676	0.968702
72	0.620757	-0.205123	0.653769	67.4145	1.23706	-1.75676	0.968702
73	0.618705	-0.200087	0.650255	68.0648	1.23706	-1.75676	0.968702
74	0.616704	-0.195144	0.646843	68.7116	1.23706	-1.75676	0.968702
75	0.614753	-0.190292	0.643531	69.3552	1.23706	-1.75676	0.968702
76	0.61285	-0.185528	0.640317	69.9955	1.23706	-1.75676	0.968702
77	0.610995	-0.180852	0.637199	70.6327	1.23706	-1.75676	0.968702
78	0.609186	-0.176262	0.634174	71.2669	1.23706	-1.75676	0.968702
79	0.607424	-0.171756	0.63124	71.8981	1.23706	-1.75676	0.968702
80	0.605706	-0.167333	0.628395	72.5265	1.23706	-1.75676	0.968702
81	0.604033	-0.162991	0.625637	73.1521	1.23706	-1.75676	0.968702
82	0.602403	-0.158728	0.622964	73.7751	1.23706	-1.75676	0.968702
83	0.600816	-0.154543	0.620373	74.3955	1.23706	-1.75676	0.968702
84	0.59927	-0.150434	0.617863	75.0133	1.23706	-1.75676	0.968702
85	0.597766	-0.146401	0.615433	75.6288	1.23706	-1.75676	0.968702
86	0.596302	-0.142442	0.613079	76.2418	1.23706	-1.75676	0.968702
87	0.594877	-0.138554	0.6108	76.8526	1.23706	-1.75676	0.968702
88	0.593492	-0.134738	0.608594	77.4612	1.23706	-1.75676	0.968702
89	0.592144	-0.130991	0.60646	78.0677	1.23706	-1.75676	0.968702
90	0.590835	-0.127313	0.604396	78.6721	1.23706	-1.75676	0.968702
91	0.589561	-0.123702	0.602399	79.2745	1.23706	-1.75676	0.968702
92	0.588324	-0.120156	0.600469	79.875	1.23706	-1.75676	0.968702
93	0.587123	-0.116675	0.598604	80.4736	1.23706	-1.75676	0.968702
94	0.585956	-0.113258	0.596801	81.0704	1.23706	-1.75676	0.968702
95	0.584824	-0.109902	0.595061	81.6654	1.23706	-1.75676	0.968702
96	0.583725	-0.106608	0.59338	82.2588	1.23706	-1.75676	0.968702
97	0.582658	-0.103373	0.591757	82.8506	1.23706	-1.75676	0.968702
98	0.581625	-0.100197	0.590192	83.4407	1.23706	-1.75676	0.968702
99	0.580623	-0.0970787	0.588682	84.0294	1.23706	-1.75676	0.968702


t	x[0]	x[1]	P	theta[0]	theta[1]	theta[2]
0	0.99	-0.980082	1.39308	1.39308	1.23606	-1.75576	0.968702
1	0.980199	-0.960543	1.37238	2.76546	1.23606	-1.75576	0.968702
2	0.970594	-0.941376	1.35212	4.11758	1.23606	-1.75576	0.968702
3	0.96118	-0.922574	1.33229	5.44988	1.23606	-1.75576	0.968702
4	0.951954	-0.904128	1.31288	6.76276	1.23606	-1.75576	0.968702
5	0.942913	-0.886033	1.29389	8.05665	1.23606	-1.75576	0.968702
6	0.934053	-0.868282	1.27529	9.33194	1.23606	-1.75576	0.968702
7	0.92537	-0.850866	1.25709	10.589	1.23606	-1.75576	0.968702
8	0.916861	-0.833781	1.23928	11.8283	1.23606	-1.75576	0.968702
9	0.908523	-0.817019	1.22186	13.0502	1.23606	-1.75576	0.968702
10	0.900353	-0.800574	1.2048	14.255	1.23606	-1.75576	0.968702
11	0.892347	-0.78444	1.18812	15.4431	1.23606	-1.75576	0.968702
12	0.884503	-0.768611	1.1718	16.6149	1.23606	-1.75576	0.968702
13	0.876817	-0.75308	1.15583	17.7707	1.23606	-1.75576	0.968702
14	0.869286	-0.737842	1.14021	18.9109	1.23606	-1.75576	0.968702
15	0.861908	-0.722892	1.12493	20.0359	1.23606	-1.75576	0.968702
16	0.854679	-0.708223	1.10998	21.1458	1.23606	-1.75576	0.968702
17	0.847597	-0.693831	1.09536	22.2412	1.23606	-1.75576	0.968702
18	0.840658	-0.679709	1.08107	23.3223	1.23606	-1.75576	0.968702
19	0.833861	-0.665853	1.06709	24.3894	1.23606	-1.75576	0.968702
20	0.827203	-0.652257	1.05342	25.4428	1.23606	-1.75576	0.968702
21	0.82068	-0.638917	1.04006	26.4828	1.23606	-1.75576	0.968702
22	0.814291	-0.625827	1.027	27.5098	1.23606	-1.75576	0.968702
23	0.808033	-0.612983	1.01423	28.5241	1.23606	-1.75576	0.968702
24	0.801903	-0.600379	1.00175	29.5258	1.23606	-1.75576	0.968702
25	0.795899	-0.588012	0.989552	30.5154	1.23606	-1.75576	0.968702
26	0.790019	-0.575877	0.977632	31.493	1.23606	-1.75576	0.968702
27	0.78426	-0.563968	0.965984	32.459	1.23606	-1.75576	0.968702
28	0.77862	-0.552283	0.954603	33.4136	1.23606	-1.75576	0.968702
29	0.773098	-0.540816	0.943484	34.3571	1.23606	-1.75576	0.968702
30	0.767689	-0.529564	0.932623	35.2897	1.23606	-1.75576	0.968702
31	0.762394	-0.518522	0.922014	36.2117	1.23606	-1.75576	0.968702
32	0.757209	-0.507686	0.911652	37.1234	1.23606	-1.75576	0.968702
33	0.752132	-0.497053	0.901534	38.0249	1.23606	-1.75576	0.968702
34	0.747161	-0.486618	0.891654	38.9166	1.23606	-1.75576	0.968702
35	0.742295	-0.476377	0.882007	39.7986	1.23606	-1.75576	0.968702
36	0.737531	-0.466328	0.87259	40.6712	1.23606	-1.75576	0.968702
37	0.732868	-0.456466	0.863398	41.5346	1.23606	-1.75576	0.968702
38	0.728303	-0.446787	0.854427	42.389	1.23606	-1.75576	0.968702
39	0.723835	-0.437289	0.845671	43.2347	1.23606	-1.75576	0.968702
40	0.719463	-0.427968	0.837128	44.0718	1.23606	-1.75576	0.968702
41	0.715183	-0.41882	0.828792	44.9006	1.23606	-1.75576	0.968702
42	0.710995	-0.409842	0.820661	45.7212	1.23606	-1.75576	0.968702
43	0.706896	-0.401032	0.812729	46.534	1.23606	-1.75576	0.968702
44	0.702886	-0.392385	0.804993	47.339	1.23606	-1.75576	0.968702
45	0.698962	-0.383898	0.797449	48.1364	1.23606	-1.75576	0.968702
46	0.695123	-0.375569	0.790094	48.9265	1.23606	-1.75576	0.968702
47	0.691367	-0.367395	0.782923	49.7094	1.23606	-1.75576	0.968702
48	0.687693	-0.359372	0.775932	50.4854	1.23606	-1.75576	0.968702
49	0.6841	-0.351498	0.769119	51.2545	1.23606	-1.75576	0.968702
50	0.680585	-0.343771	0.762479	52.0169	1.23606	-1.75576	0.968702
51	0.677147	-0.336186	0.756009	52.773	1.23606	-1.75576	0.968702
52	0.673785	-0.328742	0.749705	53.5227	1.23606	-1.75576	0.968702
53	0.670498	-0.321435	0.743564	54.2662	1.23606	-1.75576	0.968702
54	0.667283	-0.314264	0.737583	55.0038	1.23606	-1.75576	0.968702
55	0.664141	-0.307226	0.731759	55.7356	1.23606	-1.75576	0.968702
56	0.661068	-0.300318	0.726087	56.4617	1.23606	-1.75576	0.968702
57	0.658065	-0.293537	0.720565	57.1822	1.23606	-1.75576	0.968702
58	0.65513	-0.286882	0.71519	57.8974	1.23606	-1.75576	0.968702
59	0.652261	-0.28035	0.709958	58.6074	1.23606	-1.75576	0.968702
60	0.649458	-0.273938	0.704867	59.3122	1.23606	-1.75576	0.968702
61	0.646718	-0.267645	0.699913	60.0121	1.23606	-1.75576	0.968702
62	0.644042	-0.261468	0.695094	60.7072	1.23606	-1.75576	0.968702
63	0.641427	-0.255405	0.690406	61.3976	1.23606	-1.75576	0.968702
64	0.638873	-0.249453	0.685847	62.0835	1.23606	-1.75576	0.968702
65	0.636379	-0.243612	0.681413	62.7649	1.23606	-1.75576	0.968702
66	0.633942	-0.237877	0.677103	63.442	1.23606	-1.75576	0.968702
67	0.631564	-0.232249	0.672913	64.1149	1.23606	-1.75576	0.968702
68	0.629241	-0.226724	0.668841	64.7838	1.23606	-1.75576	0.968702
69	0.626974	-0.221301	0.664884	65.4487	1.23606	-1.75576	0.968702
70	0.624761	-0.215977	0.661039	66.1097	1.23606	-1.75576	0.968702
71	0.622601	-0.210751	0.657304	66.767	1.23606	-1.75576	0.968702
72	0.620494	-0.205622	0.653676	67.4207	1.23606	-1.75576	0.968702
73	0.618437	-0.200586	0.650154	68.0708	1.23606	-1.75576	0.968702
74	0.616432	-0.195643	0.646733	68.7176	1.23606	-1.75576	0.968702
75	0.614475	-0.190791	0.643414	69.361	1.23606	-1.75576	0.968702
76	0.612567	-0.186028	0.640191	70.0012	1.23606	-1.75576	0.968702
77	0.610707	-0.181352	0.637065	70.6382	1.23606	-1.75576	0.968702
78	0.608893	-0.176762	0.634031	71.2723	1.23606	-1.75576	0.968702
79	0.607126	-0.172256	0.631089	71.9033	1.23606	-1.75576	0.968702
80	0.605403	-0.167832	0.628236	72.5316	1.23606	-1.75576	0.968702
81	0.603725	-0.16349	0.62547	73.1571	1.23606	-1.75576	0.968702
82	0.60209	-0.159227	0.622788	73.7798	1.23606	-1.75576	0.968702
83	0.600498	-0.155041	0.62019	74.4	1.23606	-1.75576	0.968702
84	0.598947	-0.150933	0.617672	75.0177	1.23606	-1.75576	0.968702
85	0.597438	-0.146899	0.615233	75.6329	1.23606	-1.75576	0.968702
86	0.595969	-0.142939	0.612871	76.2458	1.23606	-1.75576	0.968702
87	0.59454	-0.139051	0.610584	76.8564	1.23606	-1.75576	0.968702
88	0.593149	-0.135235	0.60837	77.4648	1.23606	-1.75576	0.968702
89	0.591797	-0.131487	0.606228	78.071	1.23606	-1.75576	0.968702
90	0.590482	-0.127809	0.604156	78.6751	1.23606	-1.75576	0.968702
91	0.589204	-0.124197	0.602151	79.2773	1.23606	-1.75576	0.968702
92	0.587962	-0.120651	0.600213	79.8775	1.23606	-1.75576	0.968702
93	0.586755	-0.117169	0.59834	80.4758	1.23606	-1.75576	0.968702
94	0.585584	-0.113751	0.596529	81.0724	1.23606	-1.75576	0.968702
95	0.584446	-0.110395	0.594781	81.6672	1.23606	-1.75576	0.968702
96	0.583342	-0.107099	0.593092	82.2603	1.23606	-1.75576	0.968702
97	0.582271	-0.103864	0.591462	82.8517	1.23606	-1.75576	0.968702
98	0.581233	-0.100687	0.589889	83.4416	1.23606	-1.75576	0.968702
99	0.580226	-0.0975683	0.588372	84.03	1.23606	-1.75576	0.968702


t	x[0]	x[1]	P	theta[0]	theta[1]	theta[2]
0	0.99	-0.980072	1.39307	1.39307	1.23606	-1.75676	0.969702
1	0.980199	-0.960523	1.37237	2.76544	1.23606	-1.75676	0.969702
2	0.970594	-0.941347	1.3521	4.11754	1.23606	-1.75676	0.969702
3	0.961181	-0.922535	1.33227	5.44981	1.23606	-1.75676	0.969702
4	0.951955	-0.90408	1.31285	6.76266	1.23606	-1.75676	0.969702
5	0.942914	-0.885976	1.29385	8.05651	1.23606	-1.75676	0.969702
6	0.934055	-0.868216	1.27525	9.33176	1.23606	-1.75676	0.969702
7	0.925373	-0.850792	1.25704	10.5888	1.23606	-1.75676	0.969702
