
Current theta : [ -4.21198 , 2.99232 ] 


t	x[0]	x[1]	P	theta[0]	theta[1]	theta[2]
0	0.999	0.149127	1.01007	1.01007	-4.21198	2.99232	0
1	0.997509	0.19673	1.01672	2.02679	-4.21198	2.99232	0
2	0.995541	0.242823	1.02473	3.05152	-4.21198	2.99232	0
3	0.993113	0.287423	1.03387	4.08539	-4.21198	2.99232	0
4	0.990239	0.330544	1.04395	5.12934	-4.21198	2.99232	0
5	0.986934	0.372199	1.05478	6.18412	-4.21198	2.99232	0
6	0.983212	0.412404	1.0662	7.25032	-4.21198	2.99232	0
7	0.979088	0.451171	1.07804	8.32836	-4.21198	2.99232	0
8	0.974576	0.488514	1.09016	9.41852	-4.21198	2.99232	0
9	0.969691	0.524445	1.10243	10.5209	-4.21198	2.99232	0
10	0.964446	0.558979	1.11473	11.6357	-4.21198	2.99232	0
11	0.958856	0.592129	1.12695	12.7626	-4.21198	2.99232	0
12	0.952935	0.623909	1.13901	13.9016	-4.21198	2.99232	0
13	0.946696	0.654332	1.15082	15.0525	-4.21198	2.99232	0
14	0.940153	0.683415	1.1623	16.2148	-4.21198	2.99232	0
15	0.933319	0.711172	1.17339	17.3881	-4.21198	2.99232	0
16	0.926207	0.737619	1.18404	18.5722	-4.21198	2.99232	0
17	0.918831	0.762773	1.19418	19.7664	-4.21198	2.99232	0
18	0.911203	0.786649	1.20379	20.9702	-4.21198	2.99232	0
19	0.903336	0.809267	1.21282	22.183	-4.21198	2.99232	0
20	0.895244	0.830644	1.22124	23.4042	-4.21198	2.99232	0
21	0.886937	0.850799	1.22903	24.6332	-4.21198	2.99232	0
22	0.878429	0.869752	1.23617	25.8694	-4.21198	2.99232	0
23	0.869732	0.887524	1.24263	27.112	-4.21198	2.99232	0
24	0.860857	0.904134	1.24841	28.3605	-4.21198	2.99232	0
25	0.851815	0.919606	1.2535	29.614	-4.21198	2.99232	0
26	0.842619	0.933962	1.25789	30.8718	-4.21198	2.99232	0
27	0.83328	0.947223	1.26158	32.1334	-4.21198	2.99232	0
28	0.823807	0.959414	1.26457	33.398	-4.21198	2.99232	0
29	0.814213	0.970559	1.26686	34.6649	-4.21198	2.99232	0
30	0.804508	0.980682	1.26845	35.9333	-4.21198	2.99232	0
31	0.794701	0.989808	1.26936	37.2027	-4.21198	2.99232	0
32	0.784803	0.997963	1.26958	38.4723	-4.21198	2.99232	0
33	0.774823	1.00517	1.26914	39.7414	-4.21198	2.99232	0
34	0.764771	1.01146	1.26804	41.0094	-4.21198	2.99232	0
35	0.754657	1.01685	1.26629	42.2757	-4.21198	2.99232	0
36	0.744488	1.02138	1.26392	43.5396	-4.21198	2.99232	0
37	0.734274	1.02507	1.26092	44.8006	-4.21198	2.99232	0
38	0.724024	1.02794	1.25733	46.0579	-4.21198	2.99232	0
39	0.713744	1.03003	1.25315	47.311	-4.21198	2.99232	0
40	0.703444	1.03135	1.24841	48.5595	-4.21198	2.99232	0
41	0.69313	1.03194	1.24312	49.8026	-4.21198	2.99232	0
42	0.682811	1.03183	1.2373	51.0399	-4.21198	2.99232	0
43	0.672493	1.03103	1.23097	52.2708	-4.21198	2.99232	0
44	0.662182	1.02959	1.22414	53.495	-4.21198	2.99232	0
45	0.651887	1.02751	1.21685	54.7118	-4.21198	2.99232	0
46	0.641611	1.02483	1.20911	55.9209	-4.21198	2.99232	0
47	0.631363	1.02157	1.20093	57.1219	-4.21198	2.99232	0
48	0.621147	1.01777	1.19234	58.3142	-4.21198	2.99232	0
49	0.61097	1.01344	1.18336	59.4976	-4.21198	2.99232	0
50	0.600835	1.0086	1.174	60.6716	-4.21198	2.99232	0
51	0.590749	1.00329	1.16429	61.8359	-4.21198	2.99232	0
52	0.580716	0.99753	1.15425	62.9901	-4.21198	2.99232	0
53	0.570741	0.991336	1.14389	64.134	-4.21198	2.99232	0
54	0.560828	0.984735	1.13324	65.2672	-4.21198	2.99232	0
55	0.55098	0.977748	1.12231	66.3896	-4.21198	2.99232	0
56	0.541203	0.970399	1.11111	67.5007	-4.21198	2.99232	0
57	0.531499	0.962707	1.09968	68.6003	-4.21198	2.99232	0
58	0.521872	0.954694	1.08802	69.6884	-4.21198	2.99232	0
59	0.512325	0.946379	1.07616	70.7645	-4.21198	2.99232	0
60	0.502861	0.937783	1.0641	71.8286	-4.21198	2.99232	0
61	0.493483	0.928924	1.05187	72.8805	-4.21198	2.99232	0
62	0.484194	0.919821	1.03948	73.92	-4.21198	2.99232	0
63	0.474996	0.910491	1.02694	74.9469	-4.21198	2.99232	0
64	0.465891	0.900952	1.01428	75.9612	-4.21198	2.99232	0
65	0.456881	0.891221	1.00151	76.9627	-4.21198	2.99232	0
66	0.447969	0.881313	0.98863	77.9513	-4.21198	2.99232	0
67	0.439156	0.871245	0.975667	78.927	-4.21198	2.99232	0
68	0.430444	0.861031	0.96263	79.8896	-4.21198	2.99232	0
69	0.421833	0.850686	0.949531	80.8392	-4.21198	2.99232	0
70	0.413326	0.840223	0.936384	81.7755	-4.21198	2.99232	0
71	0.404924	0.829657	0.923198	82.6987	-4.21198	2.99232	0
72	0.396628	0.818999	0.909985	83.6087	-4.21198	2.99232	0
73	0.388438	0.808263	0.896757	84.5055	-4.21198	2.99232	0
74	0.380355	0.797459	0.883522	85.389	-4.21198	2.99232	0
75	0.37238	0.7866	0.870291	86.2593	-4.21198	2.99232	0
76	0.364514	0.775695	0.857073	87.1164	-4.21198	2.99232	0
77	0.356758	0.764756	0.843877	87.9602	-4.21198	2.99232	0
78	0.34911	0.753792	0.830711	88.791	-4.21198	2.99232	0
79	0.341572	0.742812	0.817583	89.6085	-4.21198	2.99232	0
80	0.334144	0.731826	0.804501	90.413	-4.21198	2.99232	0
81	0.326826	0.720842	0.791472	91.2045	-4.21198	2.99232	0
82	0.319617	0.709868	0.778503	91.983	-4.21198	2.99232	0
83	0.312519	0.698911	0.765601	92.7486	-4.21198	2.99232	0
84	0.305529	0.687979	0.752771	93.5014	-4.21198	2.99232	0
85	0.29865	0.677079	0.740019	94.2414	-4.21198	2.99232	0
86	0.291879	0.666217	0.727351	94.9688	-4.21198	2.99232	0
87	0.285217	0.6554	0.714771	95.6835	-4.21198	2.99232	0
88	0.278663	0.644633	0.702285	96.3858	-4.21198	2.99232	0
89	0.272216	0.633922	0.689897	97.0757	-4.21198	2.99232	0
90	0.265877	0.623271	0.677611	97.7533	-4.21198	2.99232	0
91	0.259644	0.612686	0.665432	98.4188	-4.21198	2.99232	0
92	0.253518	0.602171	0.653362	99.0721	-4.21198	2.99232	0
93	0.247496	0.591731	0.641404	99.7135	-4.21198	2.99232	0
94	0.241579	0.581369	0.629563	100.343	-4.21198	2.99232	0
95	0.235765	0.571089	0.617841	100.961	-4.21198	2.99232	0
96	0.230054	0.560895	0.606241	101.567	-4.21198	2.99232	0
97	0.224445	0.550789	0.594764	102.162	-4.21198	2.99232	0
98	0.218937	0.540776	0.583414	102.745	-4.21198	2.99232	0
99	0.213529	0.530856	0.572191	103.318	-4.21198	2.99232	0
100	0.208221	0.521034	0.561099	103.879	-4.21198	2.99232	0
101	0.20301	0.511311	0.550138	104.429	-4.21198	2.99232	0
102	0.197897	0.501689	0.53931	104.968	-4.21198	2.99232	0
103	0.19288	0.492171	0.528616	105.497	-4.21198	2.99232	0
104	0.187959	0.482758	0.518058	106.015	-4.21198	2.99232	0
105	0.183131	0.473452	0.507635	106.522	-4.21198	2.99232	0
106	0.178397	0.464253	0.49735	107.02	-4.21198	2.99232	0
107	0.173754	0.455165	0.487202	107.507	-4.21198	2.99232	0
108	0.169203	0.446186	0.477192	107.984	-4.21198	2.99232	0
109	0.164741	0.43732	0.46732	108.451	-4.21198	2.99232	0
110	0.160367	0.428565	0.457587	108.909	-4.21198	2.99232	0
111	0.156082	0.419924	0.447993	109.357	-4.21198	2.99232	0
112	0.151883	0.411397	0.438538	109.796	-4.21198	2.99232	0
113	0.147769	0.402983	0.429222	110.225	-4.21198	2.99232	0
114	0.143739	0.394685	0.420044	110.645	-4.21198	2.99232	0
115	0.139792	0.386501	0.411004	111.056	-4.21198	2.99232	0
116	0.135927	0.378432	0.402103	111.458	-4.21198	2.99232	0
117	0.132143	0.370478	0.393339	111.851	-4.21198	2.99232	0
118	0.128438	0.362639	0.384712	112.236	-4.21198	2.99232	0
119	0.124811	0.354916	0.376222	112.612	-4.21198	2.99232	0
120	0.121262	0.347307	0.367867	112.98	-4.21198	2.99232	0
121	0.117789	0.339812	0.359648	113.34	-4.21198	2.99232	0
122	0.114391	0.332432	0.351563	113.691	-4.21198	2.99232	0
123	0.111067	0.325166	0.343611	114.035	-4.21198	2.99232	0
124	0.107815	0.318013	0.335792	114.371	-4.21198	2.99232	0
125	0.104635	0.310973	0.328105	114.699	-4.21198	2.99232	0
126	0.101525	0.304046	0.320548	115.019	-4.21198	2.99232	0
127	0.0984847	0.29723	0.313121	115.332	-4.21198	2.99232	0
128	0.0955124	0.290526	0.305823	115.638	-4.21198	2.99232	0
129	0.0926072	0.283931	0.298652	115.937	-4.21198	2.99232	0
130	0.0897679	0.277447	0.291608	116.229	-4.21198	2.99232	0
131	0.0869934	0.271071	0.284689	116.513	-4.21198	2.99232	0
132	0.0842827	0.264804	0.277893	116.791	-4.21198	2.99232	0
133	0.0816347	0.258644	0.271221	117.062	-4.21198	2.99232	0
134	0.0790482	0.25259	0.26467	117.327	-4.21198	2.99232	0
135	0.0765223	0.246641	0.25824	117.585	-4.21198	2.99232	0
136	0.0740559	0.240797	0.251928	117.837	-4.21198	2.99232	0
137	0.0716479	0.235057	0.245734	118.083	-4.21198	2.99232	0
138	0.0692974	0.229419	0.239657	118.323	-4.21198	2.99232	0
139	0.0670032	0.223883	0.233694	118.556	-4.21198	2.99232	0
140	0.0647643	0.218447	0.227845	118.784	-4.21198	2.99232	0
141	0.0625799	0.21311	0.222109	119.006	-4.21198	2.99232	0
142	0.0604488	0.207872	0.216483	119.223	-4.21198	2.99232	0
143	0.05837	0.202732	0.210967	119.434	-4.21198	2.99232	0
144	0.0563427	0.197687	0.205559	119.639	-4.21198	2.99232	0
145	0.0543659	0.192738	0.200258	119.84	-4.21198	2.99232	0
146	0.0524385	0.187882	0.195063	120.035	-4.21198	2.99232	0
147	0.0505597	0.183119	0.189971	120.225	-4.21198	2.99232	0
148	0.0487285	0.178449	0.184982	120.41	-4.21198	2.99232	0
149	0.046944	0.173868	0.180094	120.59	-4.21198	2.99232	0
150	0.0452053	0.169377	0.175306	120.765	-4.21198	2.99232	0
151	0.0435115	0.164975	0.170616	120.936	-4.21198	2.99232	0
152	0.0418618	0.16066	0.166024	121.102	-4.21198	2.99232	0
153	0.0402552	0.15643	0.161527	121.263	-4.21198	2.99232	0
154	0.0386909	0.152286	0.157124	121.42	-4.21198	2.99232	0
155	0.037168	0.148225	0.152814	121.573	-4.21198	2.99232	0
156	0.0356858	0.144246	0.148595	121.722	-4.21198	2.99232	0
157	0.0342433	0.140349	0.144466	121.866	-4.21198	2.99232	0
158	0.0328398	0.136532	0.140426	122.007	-4.21198	2.99232	0
159	0.0314745	0.132795	0.136474	122.143	-4.21198	2.99232	0
160	0.0301465	0.129135	0.132607	122.276	-4.21198	2.99232	0
161	0.0288552	0.125552	0.128825	122.404	-4.21198	2.99232	0
162	0.0275997	0.122044	0.125126	122.53	-4.21198	2.99232	0
163	0.0263792	0.118611	0.121509	122.651	-4.21198	2.99232	0
164	0.0251931	0.115252	0.117973	122.769	-4.21198	2.99232	0
165	0.0240406	0.111964	0.114516	122.884	-4.21198	2.99232	0
166	0.022921	0.108748	0.111137	122.995	-4.21198	2.99232	0
167	0.0218335	0.105602	0.107835	123.103	-4.21198	2.99232	0
168	0.0207775	0.102524	0.104608	123.207	-4.21198	2.99232	0
169	0.0197522	0.0995144	0.101456	123.309	-4.21198	2.99232	0
170	0.0187571	0.0965713	0.098376	123.407	-4.21198	2.99232	0
171	0.0177914	0.0936938	0.095368	123.502	-4.21198	2.99232	0
172	0.0168544	0.0908808	0.0924305	123.595	-4.21198	2.99232	0
173	0.0159456	0.0881313	0.0895622	123.684	-4.21198	2.99232	0
174	0.0150643	0.0854441	0.0867619	123.771	-4.21198	2.99232	0
175	0.0142099	0.0828182	0.0840284	123.855	-4.21198	2.99232	0
176	0.0133817	0.0802526	0.0813607	123.936	-4.21198	2.99232	0
177	0.0125792	0.0777463	0.0787574	124.015	-4.21198	2.99232	0
178	0.0118017	0.0752982	0.0762174	124.091	-4.21198	2.99232	0
179	0.0110487	0.0729072	0.0737397	124.165	-4.21198	2.99232	0
180	0.0103196	0.0705725	0.071323	124.237	-4.21198	2.99232	0
181	0.00961392	0.0682929	0.0689663	124.305	-4.21198	2.99232	0
182	0.00893099	0.0660676	0.0666685	124.372	-4.21198	2.99232	0
183	0.00827031	0.0638955	0.0644285	124.437	-4.21198	2.99232	0
184	0.00763136	0.0617757	0.0622452	124.499	-4.21198	2.99232	0
185	0.0070136	0.0597072	0.0601177	124.559	-4.21198	2.99232	0
186	0.00641653	0.057689	0.0580448	124.617	-4.21198	2.99232	0
187	0.00583964	0.0557204	0.0560255	124.673	-4.21198	2.99232	0
188	0.00528244	0.0538002	0.0540589	124.727	-4.21198	2.99232	0
189	0.00474444	0.0519277	0.0521439	124.779	-4.21198	2.99232	0
190	0.00422516	0.0501018	0.0502797	124.829	-4.21198	2.99232	0
191	0.00372414	0.0483218	0.0484651	124.878	-4.21198	2.99232	0
192	0.00324092	0.0465868	0.0466994	124.925	-4.21198	2.99232	0
193	0.00277505	0.0448958	0.0449815	124.97	-4.21198	2.99232	0
194	0.0023261	0.043248	0.0433106	125.013	-4.21198	2.99232	0
195	0.00189362	0.0416427	0.0416857	125.055	-4.21198	2.99232	0
196	0.00147719	0.0400789	0.0401061	125.095	-4.21198	2.99232	0
197	0.0010764	0.0385558	0.0385708	125.133	-4.21198	2.99232	0
198	0.000690843	0.0370726	0.037079	125.17	-4.21198	2.99232	0
199	0.000320117	0.0356286	0.03563	125.206	-4.21198	2.99232	0
200	-3.61685e-05	0.0342228	0.0342229	125.24	-4.21198	2.99232	0
201	-0.000378397	0.0328547	0.0328568	125.273	-4.21198	2.99232	0
202	-0.000706944	0.0315233	0.0315312	125.305	-4.21198	2.99232	0
203	-0.00102218	0.0302279	0.0302452	125.335	-4.21198	2.99232	0
204	-0.00132446	0.0289678	0.0289981	125.364	-4.21198	2.99232	0
205	-0.00161413	0.0277423	0.0277892	125.392	-4.21198	2.99232	0
206	-0.00189156	0.0265506	0.0266179	125.418	-4.21198	2.99232	0
207	-0.00215706	0.0253921	0.0254835	125.444	-4.21198	2.99232	0
208	-0.00241098	0.0242659	0.0243854	125.468	-4.21198	2.99232	0
209	-0.00265364	0.0231715	0.0233229	125.491	-4.21198	2.99232	0
210	-0.00288536	0.0221081	0.0222956	125.514	-4.21198	2.99232	0
211	-0.00310644	0.0210751	0.0213028	125.535	-4.21198	2.99232	0
212	-0.00331719	0.0200718	0.0203441	125.555	-4.21198	2.99232	0
213	-0.00351791	0.0190976	0.0194189	125.575	-4.21198	2.99232	0
214	-0.00370888	0.0181518	0.0185268	125.593	-4.21198	2.99232	0
215	-0.0038904	0.0172338	0.0176675	125.611	-4.21198	2.99232	0
216	-0.00406274	0.016343	0.0168404	125.628	-4.21198	2.99232	0
217	-0.00422617	0.0154788	0.0160454	125.644	-4.21198	2.99232	0
218	-0.00438096	0.0146406	0.015282	125.659	-4.21198	2.99232	0
219	-0.00452736	0.0138277	0.01455	125.674	-4.21198	2.99232	0
220	-0.00466564	0.0130397	0.0138493	125.688	-4.21198	2.99232	0
221	-0.00479604	0.012276	0.0131796	125.701	-4.21198	2.99232	0
222	-0.0049188	0.0115359	0.0125408	125.713	-4.21198	2.99232	0
223	-0.00503416	0.010819	0.0119329	125.725	-4.21198	2.99232	0
224	-0.00514235	0.0101247	0.0113557	125.737	-4.21198	2.99232	0
225	-0.00524359	0.00945246	0.0108095	125.747	-4.21198	2.99232	0
226	-0.00533812	0.0088018	0.010294	125.758	-4.21198	2.99232	0
227	-0.00542614	0.00817218	0.00980956	125.768	-4.21198	2.99232	0
228	-0.00550786	0.00756312	0.00935613	125.777	-4.21198	2.99232	0
229	-0.00558349	0.00697411	0.00893384	125.786	-4.21198	2.99232	0
230	-0.00565323	0.00640467	0.00854276	125.794	-4.21198	2.99232	0
231	-0.00571728	0.00585433	0.00818294	125.803	-4.21198	2.99232	0
232	-0.00577582	0.00532263	0.00785433	125.81	-4.21198	2.99232	0
233	-0.00582905	0.0048091	0.0075568	125.818	-4.21198	2.99232	0
234	-0.00587714	0.0043133	0.00729008	125.825	-4.21198	2.99232	0
235	-0.00592027	0.00383478	0.00705373	125.832	-4.21198	2.99232	0
236	-0.00595862	0.00337312	0.00684712	125.839	-4.21198	2.99232	0
237	-0.00599235	0.0029279	0.00666939	125.846	-4.21198	2.99232	0
238	-0.00602163	0.00249869	0.00651947	125.852	-4.21198	2.99232	0
239	-0.00604662	0.00208509	0.00639603	125.859	-4.21198	2.99232	0
240	-0.00606747	0.0016867	0.00629755	125.865	-4.21198	2.99232	0
241	-0.00608433	0.00130312	0.00622232	125.871	-4.21198	2.99232	0
242	-0.00609736	0.000933985	0.00616848	125.877	-4.21198	2.99232	0
243	-0.0061067	0.000578904	0.00613408	125.884	-4.21198	2.99232	0
244	-0.00611249	0.000237513	0.00611711	125.89	-4.21198	2.99232	0
245	-0.00611487	-9.05511e-05	0.00611554	125.896	-4.21198	2.99232	0
246	-0.00611396	-0.000405641	0.0061274	125.902	-4.21198	2.99232	0
247	-0.00610991	-0.000708105	0.0061508	125.908	-4.21198	2.99232	0
248	-0.00610283	-0.000998283	0.00618393	125.914	-4.21198	2.99232	0
249	-0.00609284	-0.00127651	0.00622513	125.92	-4.21198	2.99232	0
250	-0.00608008	-0.0015431	0.00627284	125.927	-4.21198	2.99232	0
251	-0.00606465	-0.00179839	0.00632567	125.933	-4.21198	2.99232	0
252	-0.00604666	-0.00204268	0.00638237	125.939	-4.21198	2.99232	0
253	-0.00602624	-0.00227628	0.00644181	125.946	-4.21198	2.99232	0
254	-0.00600347	-0.00249949	0.00650301	125.952	-4.21198	2.99232	0
255	-0.00597848	-0.0027126	0.00656509	125.959	-4.21198	2.99232	0
256	-0.00595135	-0.00291591	0.0066273	125.966	-4.21198	2.99232	0
257	-0.00592219	-0.00310968	0.00668898	125.972	-4.21198	2.99232	0
258	-0.0058911	-0.00329419	0.00674957	125.979	-4.21198	2.99232	0
259	-0.00585815	-0.00346972	0.00680859	125.986	-4.21198	2.99232	0
260	-0.00582346	-0.00363653	0.00686564	125.993	-4.21198	2.99232	0
261	-0.00578709	-0.00379486	0.00692036	126	-4.21198	2.99232	0
262	-0.00574914	-0.00394498	0.00697248	126.007	-4.21198	2.99232	0
263	-0.00570969	-0.00408713	0.00702177	126.014	-4.21198	2.99232	0
264	-0.00566882	-0.00422155	0.00706803	126.021	-4.21198	2.99232	0
265	-0.00562661	-0.00434847	0.00711111	126.028	-4.21198	2.99232	0
266	-0.00558312	-0.00446812	0.0071509	126.035	-4.21198	2.99232	0
267	-0.00553844	-0.00458073	0.00718731	126.042	-4.21198	2.99232	0
268	-0.00549263	-0.00468652	0.00722028	126.049	-4.21198	2.99232	0
269	-0.00544577	-0.0047857	0.00724978	126.057	-4.21198	2.99232	0
270	-0.00539791	-0.00487847	0.00727577	126.064	-4.21198	2.99232	0
271	-0.00534913	-0.00496504	0.00729827	126.071	-4.21198	2.99232	0
272	-0.00529948	-0.00504562	0.00731729	126.078	-4.21198	2.99232	0
273	-0.00524902	-0.00512039	0.00733284	126.086	-4.21198	2.99232	0
274	-0.00519782	-0.00518955	0.00734498	126.093	-4.21198	2.99232	0
275	-0.00514592	-0.00525327	0.00735373	126.101	-4.21198	2.99232	0
276	-0.00509339	-0.00531175	0.00735916	126.108	-4.21198	2.99232	0
277	-0.00504027	-0.00536516	0.00736133	126.115	-4.21198	2.99232	0
278	-0.00498662	-0.00541366	0.00736031	126.123	-4.21198	2.99232	0
279	-0.00493248	-0.00545743	0.00735615	126.13	-4.21198	2.99232	0
280	-0.00487791	-0.00549664	0.00734894	126.137	-4.21198	2.99232	0
281	-0.00482294	-0.00553143	0.00733876	126.145	-4.21198	2.99232	0
282	-0.00476763	-0.00556197	0.00732569	126.152	-4.21198	2.99232	0
283	-0.00471201	-0.00558841	0.00730981	126.159	-4.21198	2.99232	0
284	-0.00465612	-0.00561089	0.0072912	126.167	-4.21198	2.99232	0
285	-0.00460001	-0.00562956	0.00726994	126.174	-4.21198	2.99232	0
286	-0.00454372	-0.00564456	0.00724613	126.181	-4.21198	2.99232	0
287	-0.00448727	-0.00565603	0.00721986	126.188	-4.21198	2.99232	0
288	-0.00443071	-0.0056641	0.00719119	126.195	-4.21198	2.99232	0
289	-0.00437407	-0.0056689	0.00716023	126.203	-4.21198	2.99232	0
290	-0.00431738	-0.00567056	0.00712706	126.21	-4.21198	2.99232	0
291	-0.00426068	-0.00566919	0.00709176	126.217	-4.21198	2.99232	0
292	-0.00420399	-0.00566493	0.00705442	126.224	-4.21198	2.99232	0
293	-0.00414734	-0.00565788	0.00701512	126.231	-4.21198	2.99232	0
294	-0.00409076	-0.00564815	0.00697395	126.238	-4.21198	2.99232	0
295	-0.00403428	-0.00563587	0.00693098	126.245	-4.21198	2.99232	0
296	-0.00397792	-0.00562114	0.00688629	126.252	-4.21198	2.99232	0
297	-0.00392171	-0.00560405	0.00683997	126.259	-4.21198	2.99232	0
298	-0.00386566	-0.00558472	0.00679209	126.265	-4.21198	2.99232	0
299	-0.00380982	-0.00556324	0.00674272	126.272	-4.21198	2.99232	0
300	-0.00375419	-0.0055397	0.00669195	126.279	-4.21198	2.99232	0
301	-0.00369879	-0.00551421	0.00663984	126.285	-4.21198	2.99232	0
302	-0.00364365	-0.00548684	0.00658647	126.292	-4.21198	2.99232	0
303	-0.00358878	-0.0054577	0.00653191	126.299	-4.21198	2.99232	0
304	-0.0035342	-0.00542686	0.00647621	126.305	-4.21198	2.99232	0
305	-0.00347993	-0.0053944	0.00641946	126.311	-4.21198	2.99232	0
306	-0.00342599	-0.00536041	0.00636171	126.318	-4.21198	2.99232	0
307	-0.00337238	-0.00532497	0.00630304	126.324	-4.21198	2.99232	0
308	-0.00331913	-0.00528815	0.00624349	126.33	-4.21198	2.99232	0
309	-0.00326625	-0.00525002	0.00618313	126.337	-4.21198	2.99232	0
310	-0.00321375	-0.00521066	0.00612202	126.343	-4.21198	2.99232	0
311	-0.00316165	-0.00517013	0.00606022	126.349	-4.21198	2.99232	0
312	-0.00310994	-0.00512851	0.00599778	126.355	-4.21198	2.99232	0
313	-0.00305866	-0.00508585	0.00593475	126.361	-4.21198	2.99232	0
314	-0.0030078	-0.00504223	0.00587119	126.367	-4.21198	2.99232	0
315	-0.00295738	-0.00499769	0.00580715	126.372	-4.21198	2.99232	0
316	-0.0029074	-0.00495231	0.00574268	126.378	-4.21198	2.99232	0
317	-0.00285788	-0.00490613	0.00567781	126.384	-4.21198	2.99232	0
318	-0.00280882	-0.00485921	0.00561261	126.389	-4.21198	2.99232	0
319	-0.00276023	-0.00481161	0.00554711	126.395	-4.21198	2.99232	0
320	-0.00271211	-0.00476338	0.00548136	126.4	-4.21198	2.99232	0
321	-0.00266448	-0.00471456	0.0054154	126.406	-4.21198	2.99232	0
322	-0.00261733	-0.00466522	0.00534927	126.411	-4.21198	2.99232	0
323	-0.00257068	-0.00461538	0.005283	126.416	-4.21198	2.99232	0
324	-0.00252452	-0.0045651	0.00521664	126.422	-4.21198	2.99232	0
325	-0.00247887	-0.00451443	0.00515023	126.427	-4.21198	2.99232	0
326	-0.00243373	-0.00446339	0.00508379	126.432	-4.21198	2.99232	0
327	-0.00238909	-0.00441205	0.00501736	126.437	-4.21198	2.99232	0
328	-0.00234497	-0.00436042	0.00495098	126.442	-4.21198	2.99232	0
