
Current theta : [ 1.22435 , -1.75397 , 0.965322 ] 


t	x[0]	x[1]	P	theta[0]	theta[1]	theta[2]
0	0.99	-0.980217	1.39317	1.39317	1.22435	-1.75397	0.965322
1	0.980198	-0.96081	1.37257	2.76574	1.22435	-1.75397	0.965322
2	0.97059	-0.941772	1.3524	4.11814	1.22435	-1.75397	0.965322
3	0.961172	-0.923095	1.33265	5.45079	1.22435	-1.75397	0.965322
4	0.951941	-0.904772	1.31332	6.7641	1.22435	-1.75397	0.965322
5	0.942893	-0.886796	1.29439	8.0585	1.22435	-1.75397	0.965322
6	0.934025	-0.869161	1.27587	9.33437	1.22435	-1.75397	0.965322
7	0.925334	-0.851859	1.25774	10.5921	1.22435	-1.75397	0.965322
8	0.916815	-0.834884	1.23999	11.8321	1.22435	-1.75397	0.965322
9	0.908466	-0.81823	1.22262	13.0547	1.22435	-1.75397	0.965322
10	0.900284	-0.80189	1.20563	14.2604	1.22435	-1.75397	0.965322
11	0.892265	-0.785858	1.189	15.4493	1.22435	-1.75397	0.965322
12	0.884407	-0.770128	1.17272	16.6221	1.22435	-1.75397	0.965322
13	0.876705	-0.754694	1.1568	17.7789	1.22435	-1.75397	0.965322
14	0.869158	-0.73955	1.14121	18.9201	1.22435	-1.75397	0.965322
15	0.861763	-0.724692	1.12597	20.046	1.22435	-1.75397	0.965322
16	0.854516	-0.710112	1.11106	21.1571	1.22435	-1.75397	0.965322
17	0.847415	-0.695806	1.09648	22.2536	1.22435	-1.75397	0.965322
18	0.840457	-0.681769	1.08221	23.3358	1.22435	-1.75397	0.965322
19	0.833639	-0.667995	1.06826	24.404	1.22435	-1.75397	0.965322
20	0.826959	-0.654479	1.05461	25.4587	1.22435	-1.75397	0.965322
21	0.820414	-0.641216	1.04127	26.4999	1.22435	-1.75397	0.965322
22	0.814002	-0.628201	1.02822	27.5281	1.22435	-1.75397	0.965322
23	0.80772	-0.61543	1.01546	28.5436	1.22435	-1.75397	0.965322
24	0.801566	-0.602898	1.00299	29.5466	1.22435	-1.75397	0.965322
25	0.795537	-0.590599	0.990801	30.5374	1.22435	-1.75397	0.965322
26	0.789631	-0.578531	0.978885	31.5163	1.22435	-1.75397	0.965322
27	0.783846	-0.566688	0.967238	32.4835	1.22435	-1.75397	0.965322
28	0.778179	-0.555065	0.955855	33.4394	1.22435	-1.75397	0.965322
29	0.772628	-0.54366	0.944733	34.3841	1.22435	-1.75397	0.965322
30	0.767191	-0.532467	0.933865	35.318	1.22435	-1.75397	0.965322
31	0.761867	-0.521482	0.923247	36.2412	1.22435	-1.75397	0.965322
32	0.756652	-0.510702	0.912874	37.1541	1.22435	-1.75397	0.965322
33	0.751545	-0.500123	0.902742	38.0568	1.22435	-1.75397	0.965322
34	0.746544	-0.48974	0.892845	38.9497	1.22435	-1.75397	0.965322
35	0.741646	-0.479551	0.883181	39.8329	1.22435	-1.75397	0.965322
36	0.736851	-0.46955	0.873743	40.7066	1.22435	-1.75397	0.965322
37	0.732155	-0.459736	0.864528	41.5711	1.22435	-1.75397	0.965322
38	0.727558	-0.450104	0.855531	42.4267	1.22435	-1.75397	0.965322
39	0.723057	-0.44065	0.846749	43.2734	1.22435	-1.75397	0.965322
40	0.71865	-0.431372	0.838177	44.1116	1.22435	-1.75397	0.965322
41	0.714337	-0.422266	0.82981	44.9414	1.22435	-1.75397	0.965322
42	0.710114	-0.413329	0.821646	45.7631	1.22435	-1.75397	0.965322
43	0.705981	-0.404557	0.81368	46.5767	1.22435	-1.75397	0.965322
44	0.701935	-0.395947	0.805908	47.3826	1.22435	-1.75397	0.965322
45	0.697976	-0.387498	0.798326	48.181	1.22435	-1.75397	0.965322
46	0.694101	-0.379204	0.790931	48.9719	1.22435	-1.75397	0.965322
47	0.690309	-0.371064	0.783718	49.7556	1.22435	-1.75397	0.965322
48	0.686598	-0.363074	0.776685	50.5323	1.22435	-1.75397	0.965322
49	0.682967	-0.355232	0.769827	51.3021	1.22435	-1.75397	0.965322
50	0.679415	-0.347535	0.763142	52.0653	1.22435	-1.75397	0.965322
51	0.67594	-0.33998	0.756625	52.8219	1.22435	-1.75397	0.965322
52	0.67254	-0.332564	0.750272	53.5722	1.22435	-1.75397	0.965322
53	0.669214	-0.325285	0.744082	54.3162	1.22435	-1.75397	0.965322
54	0.665961	-0.318141	0.73805	55.0543	1.22435	-1.75397	0.965322
55	0.66278	-0.311128	0.732173	55.7865	1.22435	-1.75397	0.965322
56	0.659669	-0.304245	0.726449	56.5129	1.22435	-1.75397	0.965322
57	0.656626	-0.297488	0.720872	57.2338	1.22435	-1.75397	0.965322
58	0.653651	-0.290856	0.715442	57.9492	1.22435	-1.75397	0.965322
59	0.650743	-0.284345	0.710154	58.6594	1.22435	-1.75397	0.965322
60	0.647899	-0.277955	0.705005	59.3644	1.22435	-1.75397	0.965322
61	0.64512	-0.271682	0.699993	60.0644	1.22435	-1.75397	0.965322
62	0.642403	-0.265524	0.695115	60.7595	1.22435	-1.75397	0.965322
63	0.639748	-0.25948	0.690367	61.4499	1.22435	-1.75397	0.965322
64	0.637153	-0.253547	0.685748	62.1356	1.22435	-1.75397	0.965322
65	0.634617	-0.247722	0.681253	62.8169	1.22435	-1.75397	0.965322
66	0.63214	-0.242005	0.676881	63.4938	1.22435	-1.75397	0.965322
67	0.62972	-0.236392	0.672628	64.1664	1.22435	-1.75397	0.965322
68	0.627356	-0.230883	0.668493	64.8349	1.22435	-1.75397	0.965322
69	0.625047	-0.225474	0.664472	65.4993	1.22435	-1.75397	0.965322
70	0.622793	-0.220165	0.660563	66.1599	1.22435	-1.75397	0.965322
71	0.620591	-0.214953	0.656763	66.8167	1.22435	-1.75397	0.965322
72	0.618442	-0.209836	0.65307	67.4697	1.22435	-1.75397	0.965322
73	0.616343	-0.204813	0.649482	68.1192	1.22435	-1.75397	0.965322
74	0.614295	-0.199882	0.645996	68.7652	1.22435	-1.75397	0.965322
75	0.612296	-0.195041	0.64261	69.4078	1.22435	-1.75397	0.965322
76	0.610346	-0.190289	0.639321	70.0472	1.22435	-1.75397	0.965322
77	0.608443	-0.185623	0.636128	70.6833	1.22435	-1.75397	0.965322
78	0.606587	-0.181043	0.633028	71.3163	1.22435	-1.75397	0.965322
79	0.604776	-0.176546	0.630018	71.9463	1.22435	-1.75397	0.965322
80	0.603011	-0.172132	0.627098	72.5734	1.22435	-1.75397	0.965322
81	0.601289	-0.167798	0.624264	73.1977	1.22435	-1.75397	0.965322
82	0.599611	-0.163543	0.621514	73.8192	1.22435	-1.75397	0.965322
83	0.597976	-0.159365	0.618848	74.438	1.22435	-1.75397	0.965322
84	0.596382	-0.155264	0.616262	75.0543	1.22435	-1.75397	0.965322
85	0.59483	-0.151237	0.613755	75.6681	1.22435	-1.75397	0.965322
86	0.593317	-0.147284	0.611325	76.2794	1.22435	-1.75397	0.965322
87	0.591845	-0.143403	0.60897	76.8884	1.22435	-1.75397	0.965322
88	0.590411	-0.139592	0.606688	77.495	1.22435	-1.75397	0.965322
89	0.589015	-0.135851	0.604478	78.0995	1.22435	-1.75397	0.965322
90	0.587656	-0.132177	0.602338	78.7019	1.22435	-1.75397	0.965322
91	0.586334	-0.12857	0.600265	79.3021	1.22435	-1.75397	0.965322
92	0.585049	-0.125029	0.598259	79.9004	1.22435	-1.75397	0.965322
93	0.583798	-0.121552	0.596318	80.4967	1.22435	-1.75397	0.965322
94	0.582583	-0.118138	0.59444	81.0911	1.22435	-1.75397	0.965322
95	0.581401	-0.114786	0.592624	81.6838	1.22435	-1.75397	0.965322
96	0.580254	-0.111495	0.590868	82.2746	1.22435	-1.75397	0.965322
97	0.579139	-0.108263	0.589171	82.8638	1.22435	-1.75397	0.965322
98	0.578056	-0.10509	0.587531	83.4513	1.22435	-1.75397	0.965322
99	0.577005	-0.101974	0.585947	84.0373	1.22435	-1.75397	0.965322


t	x[0]	x[1]	P	theta[0]	theta[1]	theta[2]
0	0.99	-0.980207	1.39316	1.39316	1.22535	-1.75397	0.965322
1	0.980198	-0.96079	1.37255	2.76572	1.22535	-1.75397	0.965322
2	0.97059	-0.941742	1.35238	4.1181	1.22535	-1.75397	0.965322
3	0.961173	-0.923056	1.33262	5.45072	1.22535	-1.75397	0.965322
4	0.951942	-0.904724	1.31329	6.764	1.22535	-1.75397	0.965322
5	0.942895	-0.88674	1.29436	8.05836	1.22535	-1.75397	0.965322
6	0.934027	-0.869096	1.27583	9.33419	1.22535	-1.75397	0.965322
7	0.925336	-0.851786	1.25769	10.5919	1.22535	-1.75397	0.965322
8	0.916819	-0.834803	1.23994	11.8318	1.22535	-1.75397	0.965322
9	0.908471	-0.818141	1.22257	13.0544	1.22535	-1.75397	0.965322
10	0.900289	-0.801794	1.20557	14.26	1.22535	-1.75397	0.965322
11	0.892271	-0.785754	1.18893	15.4489	1.22535	-1.75397	0.965322
12	0.884414	-0.770017	1.17265	16.6215	1.22535	-1.75397	0.965322
13	0.876713	-0.754576	1.15672	17.7783	1.22535	-1.75397	0.965322
14	0.869168	-0.739426	1.14114	18.9194	1.22535	-1.75397	0.965322
15	0.861773	-0.724561	1.1259	20.0453	1.22535	-1.75397	0.965322
16	0.854528	-0.709975	1.11098	21.1563	1.22535	-1.75397	0.965322
17	0.847428	-0.695663	1.09639	22.2527	1.22535	-1.75397	0.965322
18	0.840471	-0.68162	1.08213	23.3348	1.22535	-1.75397	0.965322
19	0.833655	-0.66784	1.06817	24.403	1.22535	-1.75397	0.965322
20	0.826977	-0.654318	1.05452	25.4575	1.22535	-1.75397	0.965322
21	0.820434	-0.64105	1.04118	26.4987	1.22535	-1.75397	0.965322
22	0.814023	-0.62803	1.02813	27.5268	1.22535	-1.75397	0.965322
23	0.807743	-0.615253	1.01537	28.5422	1.22535	-1.75397	0.965322
24	0.80159	-0.602716	1.0029	29.5451	1.22535	-1.75397	0.965322
25	0.795563	-0.590413	0.990711	30.5358	1.22535	-1.75397	0.965322
26	0.789659	-0.578339	0.978794	31.5146	1.22535	-1.75397	0.965322
27	0.783876	-0.566491	0.967147	32.4817	1.22535	-1.75397	0.965322
28	0.778211	-0.554865	0.955765	33.4375	1.22535	-1.75397	0.965322
29	0.772662	-0.543455	0.944643	34.3822	1.22535	-1.75397	0.965322
30	0.767228	-0.532257	0.933775	35.3159	1.22535	-1.75397	0.965322
31	0.761905	-0.521269	0.923158	36.2391	1.22535	-1.75397	0.965322
32	0.756692	-0.510485	0.912786	37.1519	1.22535	-1.75397	0.965322
33	0.751587	-0.499901	0.902655	38.0545	1.22535	-1.75397	0.965322
34	0.746588	-0.489515	0.892759	38.9473	1.22535	-1.75397	0.965322
35	0.741693	-0.479322	0.883096	39.8304	1.22535	-1.75397	0.965322
36	0.7369	-0.469318	0.87366	40.704	1.22535	-1.75397	0.965322
37	0.732207	-0.4595	0.864446	41.5685	1.22535	-1.75397	0.965322
38	0.727612	-0.449864	0.855451	42.4239	1.22535	-1.75397	0.965322
39	0.723113	-0.440408	0.846671	43.2706	1.22535	-1.75397	0.965322
40	0.718709	-0.431126	0.838101	44.1087	1.22535	-1.75397	0.965322
41	0.714398	-0.422017	0.829737	44.9384	1.22535	-1.75397	0.965322
42	0.710178	-0.413077	0.821575	45.76	1.22535	-1.75397	0.965322
43	0.706047	-0.404302	0.813611	46.5736	1.22535	-1.75397	0.965322
44	0.702004	-0.39569	0.805841	47.3795	1.22535	-1.75397	0.965322
45	0.698047	-0.387238	0.798262	48.1777	1.22535	-1.75397	0.965322
46	0.694175	-0.378941	0.79087	48.9686	1.22535	-1.75397	0.965322
47	0.690385	-0.370799	0.78366	49.7523	1.22535	-1.75397	0.965322
48	0.686677	-0.362806	0.77663	50.5289	1.22535	-1.75397	0.965322
49	0.683049	-0.354962	0.769775	51.2987	1.22535	-1.75397	0.965322
50	0.6795	-0.347262	0.763093	52.0618	1.22535	-1.75397	0.965322
51	0.676027	-0.339705	0.756579	52.8183	1.22535	-1.75397	0.965322
52	0.67263	-0.332287	0.750231	53.5686	1.22535	-1.75397	0.965322
53	0.669307	-0.325006	0.744044	54.3126	1.22535	-1.75397	0.965322
54	0.666057	-0.31786	0.738015	55.0506	1.22535	-1.75397	0.965322
55	0.662878	-0.310845	0.732142	55.7828	1.22535	-1.75397	0.965322
56	0.65977	-0.303959	0.726421	56.5092	1.22535	-1.75397	0.965322
57	0.65673	-0.297201	0.720849	57.23	1.22535	-1.75397	0.965322
58	0.653758	-0.290567	0.715422	57.9455	1.22535	-1.75397	0.965322
59	0.650853	-0.284055	0.710138	58.6556	1.22535	-1.75397	0.965322
60	0.648012	-0.277663	0.704994	59.3606	1.22535	-1.75397	0.965322
61	0.645235	-0.271388	0.699986	60.0606	1.22535	-1.75397	0.965322
62	0.642522	-0.265229	0.695112	60.7557	1.22535	-1.75397	0.965322
63	0.639869	-0.259183	0.690368	61.4461	1.22535	-1.75397	0.965322
64	0.637278	-0.253248	0.685753	62.1318	1.22535	-1.75397	0.965322
65	0.634745	-0.247422	0.681263	62.8131	1.22535	-1.75397	0.965322
66	0.632271	-0.241703	0.676895	63.49	1.22535	-1.75397	0.965322
67	0.629854	-0.236089	0.672647	64.1626	1.22535	-1.75397	0.965322
68	0.627493	-0.230578	0.668516	64.8311	1.22535	-1.75397	0.965322
69	0.625187	-0.225168	0.6645	65.4956	1.22535	-1.75397	0.965322
70	0.622935	-0.219858	0.660595	66.1562	1.22535	-1.75397	0.965322
71	0.620737	-0.214644	0.6568	66.813	1.22535	-1.75397	0.965322
72	0.61859	-0.209527	0.653112	67.4661	1.22535	-1.75397	0.965322
73	0.616495	-0.204502	0.649529	68.1157	1.22535	-1.75397	0.965322
74	0.61445	-0.19957	0.646047	68.7617	1.22535	-1.75397	0.965322
75	0.612454	-0.194728	0.642666	69.4044	1.22535	-1.75397	0.965322
76	0.610507	-0.189975	0.639382	70.0438	1.22535	-1.75397	0.965322
77	0.608607	-0.185308	0.636193	70.68	1.22535	-1.75397	0.965322
78	0.606754	-0.180727	0.633098	71.3131	1.22535	-1.75397	0.965322
79	0.604947	-0.176229	0.630093	71.9432	1.22535	-1.75397	0.965322
80	0.603185	-0.171814	0.627178	72.5703	1.22535	-1.75397	0.965322
81	0.601467	-0.167479	0.624349	73.1947	1.22535	-1.75397	0.965322
82	0.599792	-0.163223	0.621604	73.8163	1.22535	-1.75397	0.965322
83	0.59816	-0.159045	0.618943	74.4352	1.22535	-1.75397	0.965322
84	0.596569	-0.154942	0.616362	75.0516	1.22535	-1.75397	0.965322
85	0.59502	-0.150915	0.61386	75.6654	1.22535	-1.75397	0.965322
86	0.593511	-0.146961	0.611435	76.2769	1.22535	-1.75397	0.965322
87	0.592041	-0.143079	0.609085	76.886	1.22535	-1.75397	0.965322
88	0.59061	-0.139267	0.606808	77.4928	1.22535	-1.75397	0.965322
89	0.589217	-0.135525	0.604603	78.0974	1.22535	-1.75397	0.965322
90	0.587862	-0.131851	0.602467	78.6998	1.22535	-1.75397	0.965322
91	0.586544	-0.128243	0.6004	79.3002	1.22535	-1.75397	0.965322
92	0.585261	-0.124701	0.598399	79.8986	1.22535	-1.75397	0.965322
93	0.584014	-0.121224	0.596463	80.4951	1.22535	-1.75397	0.965322
94	0.582802	-0.117809	0.59459	81.0897	1.22535	-1.75397	0.965322
95	0.581624	-0.114456	0.592779	81.6825	1.22535	-1.75397	0.965322
96	0.580479	-0.111164	0.591028	82.2735	1.22535	-1.75397	0.965322
97	0.579368	-0.107932	0.589335	82.8628	1.22535	-1.75397	0.965322
98	0.578288	-0.104758	0.5877	83.4505	1.22535	-1.75397	0.965322
99	0.577241	-0.101642	0.586121	84.0367	1.22535	-1.75397	0.965322


t	x[0]	x[1]	P	theta[0]	theta[1]	theta[2]
0	0.99	-0.980227	1.39318	1.39318	1.22435	-1.75297	0.965322
1	0.980198	-0.960829	1.37258	2.76576	1.22435	-1.75297	0.965322
2	0.970589	-0.9418	1.35242	4.11818	1.22435	-1.75297	0.965322
3	0.961171	-0.923132	1.33268	5.45085	1.22435	-1.75297	0.965322
4	0.95194	-0.904818	1.31335	6.7642	1.22435	-1.75297	0.965322
5	0.942892	-0.886851	1.29443	8.05863	1.22435	-1.75297	0.965322
6	0.934023	-0.869223	1.27591	9.33454	1.22435	-1.75297	0.965322
7	0.925331	-0.851929	1.25778	10.5923	1.22435	-1.75297	0.965322
8	0.916812	-0.834961	1.24004	11.8324	1.22435	-1.75297	0.965322
9	0.908462	-0.818314	1.22268	13.055	1.22435	-1.75297	0.965322
10	0.900279	-0.801981	1.20568	14.2607	1.22435	-1.75297	0.965322
11	0.892259	-0.785955	1.18906	15.4498	1.22435	-1.75297	0.965322
12	0.8844	-0.770231	1.17278	16.6226	1.22435	-1.75297	0.965322
13	0.876697	-0.754804	1.15686	17.7794	1.22435	-1.75297	0.965322
14	0.869149	-0.739666	1.14128	18.9207	1.22435	-1.75297	0.965322
15	0.861753	-0.724812	1.12604	20.0468	1.22435	-1.75297	0.965322
16	0.854505	-0.710238	1.11113	21.1579	1.22435	-1.75297	0.965322
17	0.847402	-0.695937	1.09655	22.2544	1.22435	-1.75297	0.965322
18	0.840443	-0.681905	1.08228	23.3367	1.22435	-1.75297	0.965322
19	0.833624	-0.668135	1.06833	24.4051	1.22435	-1.75297	0.965322
20	0.826943	-0.654623	1.05469	25.4597	1.22435	-1.75297	0.965322
21	0.820396	-0.641364	1.04134	26.5011	1.22435	-1.75297	0.965322
22	0.813983	-0.628354	1.0283	27.5294	1.22435	-1.75297	0.965322
23	0.807699	-0.615586	1.01554	28.5449	1.22435	-1.75297	0.965322
24	0.801543	-0.603057	1.00307	29.548	1.22435	-1.75297	0.965322
25	0.795513	-0.590762	0.990879	30.5389	1.22435	-1.75297	0.965322
26	0.789605	-0.578697	0.978962	31.5178	1.22435	-1.75297	0.965322
27	0.783818	-0.566857	0.967314	32.4851	1.22435	-1.75297	0.965322
28	0.77815	-0.555237	0.955931	33.4411	1.22435	-1.75297	0.965322
29	0.772597	-0.543834	0.944808	34.3859	1.22435	-1.75297	0.965322
30	0.767159	-0.532644	0.933939	35.3198	1.22435	-1.75297	0.965322
31	0.761832	-0.521661	0.92332	36.2431	1.22435	-1.75297	0.965322
32	0.756616	-0.510883	0.912945	37.1561	1.22435	-1.75297	0.965322
33	0.751507	-0.500306	0.902812	38.0589	1.22435	-1.75297	0.965322
34	0.746504	-0.489925	0.892914	38.9518	1.22435	-1.75297	0.965322
35	0.741605	-0.479738	0.883247	39.8351	1.22435	-1.75297	0.965322
36	0.736807	-0.469739	0.873808	40.7089	1.22435	-1.75297	0.965322
37	0.73211	-0.459926	0.864591	41.5735	1.22435	-1.75297	0.965322
38	0.727511	-0.450295	0.855592	42.4291	1.22435	-1.75297	0.965322
39	0.723008	-0.440843	0.846807	43.2759	1.22435	-1.75297	0.965322
40	0.718599	-0.431566	0.838233	44.1141	1.22435	-1.75297	0.965322
41	0.714284	-0.422461	0.829864	44.944	1.22435	-1.75297	0.965322
42	0.710059	-0.413525	0.821697	45.7657	1.22435	-1.75297	0.965322
43	0.705924	-0.404754	0.813728	46.5794	1.22435	-1.75297	0.965322
44	0.701876	-0.396145	0.805954	47.3853	1.22435	-1.75297	0.965322
45	0.697915	-0.387696	0.798369	48.1837	1.22435	-1.75297	0.965322
46	0.694038	-0.379403	0.790971	48.9747	1.22435	-1.75297	0.965322
47	0.690244	-0.371263	0.783756	49.7584	1.22435	-1.75297	0.965322
48	0.686531	-0.363274	0.776719	50.5352	1.22435	-1.75297	0.965322
49	0.682898	-0.355432	0.769859	51.305	1.22435	-1.75297	0.965322
50	0.679344	-0.347735	0.76317	52.0682	1.22435	-1.75297	0.965322
51	0.675867	-0.34018	0.756649	52.8248	1.22435	-1.75297	0.965322
52	0.672465	-0.332765	0.750294	53.5751	1.22435	-1.75297	0.965322
53	0.669137	-0.325486	0.744101	54.3192	1.22435	-1.75297	0.965322
54	0.665882	-0.318342	0.738065	55.0573	1.22435	-1.75297	0.965322
55	0.662699	-0.311329	0.732185	55.7895	1.22435	-1.75297	0.965322
56	0.659586	-0.304445	0.726457	56.5159	1.22435	-1.75297	0.965322
57	0.656541	-0.297688	0.720878	57.2368	1.22435	-1.75297	0.965322
58	0.653564	-0.291055	0.715444	57.9523	1.22435	-1.75297	0.965322
59	0.650654	-0.284545	0.710152	58.6624	1.22435	-1.75297	0.965322
60	0.647808	-0.278154	0.705	59.3674	1.22435	-1.75297	0.965322
61	0.645027	-0.271881	0.699985	60.0674	1.22435	-1.75297	0.965322
62	0.642308	-0.265723	0.695103	60.7625	1.22435	-1.75297	0.965322
63	0.639651	-0.259678	0.690352	61.4528	1.22435	-1.75297	0.965322
64	0.637054	-0.253744	0.685729	62.1386	1.22435	-1.75297	0.965322
65	0.634517	-0.247919	0.68123	62.8198	1.22435	-1.75297	0.965322
66	0.632037	-0.242201	0.676855	63.4967	1.22435	-1.75297	0.965322
67	0.629615	-0.236587	0.672599	64.1693	1.22435	-1.75297	0.965322
68	0.627249	-0.231077	0.66846	64.8377	1.22435	-1.75297	0.965322
69	0.624939	-0.225668	0.664435	65.5022	1.22435	-1.75297	0.965322
70	0.622682	-0.220357	0.660523	66.1627	1.22435	-1.75297	0.965322
71	0.620478	-0.215144	0.65672	66.8194	1.22435	-1.75297	0.965322
72	0.618327	-0.210027	0.653023	67.4724	1.22435	-1.75297	0.965322
73	0.616227	-0.205003	0.649432	68.1218	1.22435	-1.75297	0.965322
74	0.614177	-0.200071	0.645942	68.7678	1.22435	-1.75297	0.965322
75	0.612176	-0.195229	0.642553	69.4103	1.22435	-1.75297	0.965322
76	0.610224	-0.190476	0.63926	70.0496	1.22435	-1.75297	0.965322
77	0.608319	-0.185809	0.636064	70.6857	1.22435	-1.75297	0.965322
78	0.606461	-0.181228	0.63296	71.3186	1.22435	-1.75297	0.965322
79	0.604649	-0.17673	0.629947	71.9486	1.22435	-1.75297	0.965322
80	0.602881	-0.172314	0.627023	72.5756	1.22435	-1.75297	0.965322
81	0.601158	-0.167979	0.624186	73.1998	1.22435	-1.75297	0.965322
82	0.599478	-0.163723	0.621433	73.8212	1.22435	-1.75297	0.965322
83	0.597841	-0.159544	0.618764	74.44	1.22435	-1.75297	0.965322
84	0.596246	-0.155442	0.616175	75.0562	1.22435	-1.75297	0.965322
85	0.594691	-0.151414	0.613664	75.6698	1.22435	-1.75297	0.965322
86	0.593177	-0.147459	0.611231	76.2811	1.22435	-1.75297	0.965322
87	0.591703	-0.143577	0.608873	76.8899	1.22435	-1.75297	0.965322
88	0.590267	-0.139765	0.606588	77.4965	1.22435	-1.75297	0.965322
89	0.588869	-0.136022	0.604375	78.1009	1.22435	-1.75297	0.965322
90	0.587509	-0.132347	0.602231	78.7031	1.22435	-1.75297	0.965322
91	0.586185	-0.128739	0.600156	79.3033	1.22435	-1.75297	0.965322
92	0.584898	-0.125197	0.598147	79.9014	1.22435	-1.75297	0.965322
93	0.583646	-0.121718	0.596203	80.4976	1.22435	-1.75297	0.965322
94	0.582429	-0.118303	0.594322	81.0919	1.22435	-1.75297	0.965322
95	0.581246	-0.11495	0.592503	81.6844	1.22435	-1.75297	0.965322
96	0.580096	-0.111657	0.590744	82.2752	1.22435	-1.75297	0.965322
97	0.57898	-0.108424	0.589044	82.8642	1.22435	-1.75297	0.965322
98	0.577896	-0.105249	0.587402	83.4516	1.22435	-1.75297	0.965322
99	0.576843	-0.102132	0.585815	84.0375	1.22435	-1.75297	0.965322


t	x[0]	x[1]	P	theta[0]	theta[1]	theta[2]
0	0.99	-0.980217	1.39317	1.39317	1.22435	-1.75397	0.966322
1	0.980198	-0.96081	1.37257	2.76574	1.22435	-1.75397	0.966322
2	0.97059	-0.941771	1.3524	4.11814	1.22435	-1.75397	0.966322
3	0.961172	-0.923093	1.33265	5.45078	1.22435	-1.75397	0.966322
4	0.951941	-0.90477	1.31332	6.7641	1.22435	-1.75397	0.966322
5	0.942893	-0.886793	1.29439	8.05849	1.22435	-1.75397	0.966322
6	0.934025	-0.869157	1.27587	9.33436	1.22435	-1.75397	0.966322
7	0.925334	-0.851854	1.25774	10.5921	1.22435	-1.75397	0.966322
