
Current theta : [ 1.31424 , -1.67997 , 1.00246 ] 


t	x[0]	x[1]	P	theta[0]	theta[1]	theta[2]
0	0.99	-0.980058	1.39306	1.39306	1.31424	-1.67997	1.00246
1	0.980199	-0.960482	1.37234	2.7654	1.31424	-1.67997	1.00246
2	0.970595	-0.941265	1.35205	4.11745	1.31424	-1.67997	1.00246
3	0.961182	-0.922401	1.33218	5.44962	1.31424	-1.67997	1.00246
4	0.951958	-0.903882	1.31272	6.76234	1.31424	-1.67997	1.00246
5	0.942919	-0.885704	1.29366	8.05601	1.31424	-1.67997	1.00246
6	0.934062	-0.867859	1.27501	9.33102	1.31424	-1.67997	1.00246
7	0.925383	-0.850341	1.25675	10.5878	1.31424	-1.67997	1.00246
8	0.91688	-0.833145	1.23887	11.8266	1.31424	-1.67997	1.00246
9	0.908549	-0.816264	1.22137	13.048	1.31424	-1.67997	1.00246
10	0.900386	-0.799692	1.20424	14.2522	1.31424	-1.67997	1.00246
11	0.892389	-0.783425	1.18748	15.4397	1.31424	-1.67997	1.00246
12	0.884555	-0.767455	1.17108	16.6108	1.31424	-1.67997	1.00246
13	0.87688	-0.751779	1.15503	17.7658	1.31424	-1.67997	1.00246
14	0.869362	-0.736389	1.13932	18.9052	1.31424	-1.67997	1.00246
15	0.861999	-0.721282	1.12396	20.0291	1.31424	-1.67997	1.00246
16	0.854786	-0.706451	1.10893	21.1381	1.31424	-1.67997	1.00246
17	0.847721	-0.691892	1.09423	22.2323	1.31424	-1.67997	1.00246
18	0.840802	-0.6776	1.07986	23.3121	1.31424	-1.67997	1.00246
19	0.834026	-0.66357	1.0658	24.3779	1.31424	-1.67997	1.00246
20	0.827391	-0.649796	1.05205	25.43	1.31424	-1.67997	1.00246
21	0.820893	-0.636275	1.03861	26.4686	1.31424	-1.67997	1.00246
22	0.81453	-0.623001	1.02547	27.4941	1.31424	-1.67997	1.00246
23	0.8083	-0.60997	1.01263	28.5067	1.31424	-1.67997	1.00246
24	0.8022	-0.597177	1.00007	29.5068	1.31424	-1.67997	1.00246
25	0.796228	-0.584619	0.987805	30.4946	1.31424	-1.67997	1.00246
26	0.790382	-0.57229	0.975818	31.4704	1.31424	-1.67997	1.00246
27	0.784659	-0.560187	0.964106	32.4345	1.31424	-1.67997	1.00246
28	0.779057	-0.548305	0.952664	33.3872	1.31424	-1.67997	1.00246
29	0.773574	-0.53664	0.941488	34.3287	1.31424	-1.67997	1.00246
30	0.768208	-0.525189	0.930573	35.2592	1.31424	-1.67997	1.00246
31	0.762956	-0.513946	0.919915	36.1791	1.31424	-1.67997	1.00246
32	0.757817	-0.502909	0.909507	37.0886	1.31424	-1.67997	1.00246
33	0.752788	-0.492074	0.899348	37.988	1.31424	-1.67997	1.00246
34	0.747867	-0.481436	0.88943	38.8774	1.31424	-1.67997	1.00246
35	0.743052	-0.470993	0.879751	39.7572	1.31424	-1.67997	1.00246
36	0.738343	-0.46074	0.870305	40.6275	1.31424	-1.67997	1.00246
37	0.733735	-0.450675	0.861089	41.4886	1.31424	-1.67997	1.00246
38	0.729228	-0.440793	0.852099	42.3407	1.31424	-1.67997	1.00246
39	0.72482	-0.431091	0.843329	43.184	1.31424	-1.67997	1.00246
40	0.72051	-0.421566	0.834777	44.0188	1.31424	-1.67997	1.00246
41	0.716294	-0.412215	0.826437	44.8452	1.31424	-1.67997	1.00246
42	0.712172	-0.403034	0.818306	45.6635	1.31424	-1.67997	1.00246
43	0.708141	-0.39402	0.81038	46.4739	1.31424	-1.67997	1.00246
44	0.704201	-0.385171	0.802656	47.2766	1.31424	-1.67997	1.00246
45	0.70035	-0.376482	0.795128	48.0717	1.31424	-1.67997	1.00246
46	0.696585	-0.367952	0.787794	48.8595	1.31424	-1.67997	1.00246
47	0.692905	-0.359577	0.780649	49.6401	1.31424	-1.67997	1.00246
48	0.689309	-0.351354	0.773691	50.4138	1.31424	-1.67997	1.00246
49	0.685796	-0.343281	0.766914	51.1807	1.31424	-1.67997	1.00246
50	0.682363	-0.335354	0.760317	51.941	1.31424	-1.67997	1.00246
51	0.67901	-0.327572	0.753895	52.6949	1.31424	-1.67997	1.00246
52	0.675734	-0.319931	0.747644	53.4426	1.31424	-1.67997	1.00246
53	0.672534	-0.312428	0.741562	54.1841	1.31424	-1.67997	1.00246
54	0.66941	-0.305062	0.735645	54.9198	1.31424	-1.67997	1.00246
55	0.66636	-0.297829	0.729889	55.6497	1.31424	-1.67997	1.00246
56	0.663381	-0.290728	0.724291	56.374	1.31424	-1.67997	1.00246
57	0.660474	-0.283755	0.718848	57.0928	1.31424	-1.67997	1.00246
58	0.657636	-0.276909	0.713557	57.8064	1.31424	-1.67997	1.00246
59	0.654867	-0.270186	0.708415	58.5148	1.31424	-1.67997	1.00246
60	0.652165	-0.263586	0.703418	59.2182	1.31424	-1.67997	1.00246
61	0.64953	-0.257104	0.698564	59.9168	1.31424	-1.67997	1.00246
62	0.646959	-0.25074	0.693849	60.6106	1.31424	-1.67997	1.00246
63	0.644451	-0.244491	0.68927	61.2999	1.31424	-1.67997	1.00246
64	0.642006	-0.238355	0.684825	61.9847	1.31424	-1.67997	1.00246
65	0.639623	-0.23233	0.680511	62.6652	1.31424	-1.67997	1.00246
66	0.637299	-0.226414	0.676324	63.3416	1.31424	-1.67997	1.00246
67	0.635035	-0.220604	0.672262	64.0138	1.31424	-1.67997	1.00246
68	0.632829	-0.214899	0.668322	64.6821	1.31424	-1.67997	1.00246
69	0.63068	-0.209297	0.664502	65.3466	1.31424	-1.67997	1.00246
70	0.628587	-0.203796	0.660799	66.0074	1.31424	-1.67997	1.00246
71	0.626549	-0.198394	0.657209	66.6646	1.31424	-1.67997	1.00246
72	0.624565	-0.193089	0.653732	67.3184	1.31424	-1.67997	1.00246
73	0.622634	-0.18788	0.650363	67.9687	1.31424	-1.67997	1.00246
74	0.620756	-0.182764	0.647102	68.6158	1.31424	-1.67997	1.00246
75	0.618928	-0.177741	0.643944	69.2598	1.31424	-1.67997	1.00246
76	0.617151	-0.172807	0.640888	69.9007	1.31424	-1.67997	1.00246
77	0.615423	-0.167962	0.637931	70.5386	1.31424	-1.67997	1.00246
78	0.613743	-0.163204	0.635072	71.1737	1.31424	-1.67997	1.00246
79	0.612111	-0.158531	0.632307	71.806	1.31424	-1.67997	1.00246
80	0.610526	-0.153942	0.629634	72.4356	1.31424	-1.67997	1.00246
81	0.608986	-0.149435	0.627052	73.0627	1.31424	-1.67997	1.00246
82	0.607492	-0.145008	0.624559	73.6872	1.31424	-1.67997	1.00246
83	0.606042	-0.140661	0.622151	74.3094	1.31424	-1.67997	1.00246
84	0.604635	-0.136391	0.619828	74.9292	1.31424	-1.67997	1.00246
85	0.603271	-0.132198	0.617586	75.5468	1.31424	-1.67997	1.00246
86	0.601949	-0.128079	0.615424	76.1622	1.31424	-1.67997	1.00246
87	0.600668	-0.124034	0.613341	76.7756	1.31424	-1.67997	1.00246
88	0.599428	-0.120061	0.611333	77.3869	1.31424	-1.67997	1.00246
89	0.598228	-0.116158	0.6094	77.9963	1.31424	-1.67997	1.00246
90	0.597066	-0.112325	0.60754	78.6038	1.31424	-1.67997	1.00246
91	0.595943	-0.10856	0.60575	79.2096	1.31424	-1.67997	1.00246
92	0.594857	-0.104862	0.604029	79.8136	1.31424	-1.67997	1.00246
93	0.593808	-0.101229	0.602375	80.416	1.31424	-1.67997	1.00246
94	0.592796	-0.0976609	0.600787	81.0168	1.31424	-1.67997	1.00246
95	0.59182	-0.0941559	0.599263	81.616	1.31424	-1.67997	1.00246
96	0.590878	-0.0907128	0.597801	82.2138	1.31424	-1.67997	1.00246
97	0.589971	-0.0873307	0.596399	82.8102	1.31424	-1.67997	1.00246
98	0.589098	-0.0840082	0.595057	83.4053	1.31424	-1.67997	1.00246
99	0.588257	-0.0807444	0.593773	83.9991	1.31424	-1.67997	1.00246


t	x[0]	x[1]	P	theta[0]	theta[1]	theta[2]
0	0.99	-0.980048	1.39305	1.39305	1.31524	-1.67997	1.00246
1	0.9802	-0.960462	1.37233	2.76538	1.31524	-1.67997	1.00246
2	0.970595	-0.941236	1.35203	4.11741	1.31524	-1.67997	1.00246
3	0.961183	-0.922362	1.33215	5.44956	1.31524	-1.67997	1.00246
4	0.951959	-0.903835	1.31269	6.76224	1.31524	-1.67997	1.00246
5	0.942921	-0.885648	1.29363	8.05587	1.31524	-1.67997	1.00246
6	0.934064	-0.867794	1.27497	9.33084	1.31524	-1.67997	1.00246
7	0.925386	-0.850269	1.2567	10.5875	1.31524	-1.67997	1.00246
8	0.916883	-0.833064	1.23882	11.8264	1.31524	-1.67997	1.00246
9	0.908553	-0.816175	1.22131	13.0477	1.31524	-1.67997	1.00246
10	0.900391	-0.799596	1.20418	14.2519	1.31524	-1.67997	1.00246
11	0.892395	-0.783321	1.18742	15.4393	1.31524	-1.67997	1.00246
12	0.884562	-0.767344	1.17101	16.6103	1.31524	-1.67997	1.00246
13	0.876888	-0.751661	1.15496	17.7652	1.31524	-1.67997	1.00246
14	0.869372	-0.736264	1.13925	18.9045	1.31524	-1.67997	1.00246
15	0.862009	-0.72115	1.12389	20.0284	1.31524	-1.67997	1.00246
16	0.854798	-0.706313	1.10885	21.1372	1.31524	-1.67997	1.00246
17	0.847735	-0.691748	1.09415	22.2314	1.31524	-1.67997	1.00246
18	0.840817	-0.67745	1.07977	23.3112	1.31524	-1.67997	1.00246
19	0.834043	-0.663413	1.06571	24.3769	1.31524	-1.67997	1.00246
20	0.827408	-0.649634	1.05196	25.4288	1.31524	-1.67997	1.00246
21	0.820912	-0.636107	1.03852	26.4674	1.31524	-1.67997	1.00246
22	0.814551	-0.622828	1.02538	27.4927	1.31524	-1.67997	1.00246
23	0.808323	-0.609792	1.01254	28.5053	1.31524	-1.67997	1.00246
24	0.802225	-0.596994	0.999983	29.5053	1.31524	-1.67997	1.00246
25	0.796255	-0.58443	0.987715	30.493	1.31524	-1.67997	1.00246
26	0.790411	-0.572097	0.975727	31.4687	1.31524	-1.67997	1.00246
27	0.78469	-0.559989	0.964015	32.4327	1.31524	-1.67997	1.00246
28	0.77909	-0.548102	0.952574	33.3853	1.31524	-1.67997	1.00246
29	0.773609	-0.536433	0.941398	34.3267	1.31524	-1.67997	1.00246
30	0.768244	-0.524977	0.930484	35.2572	1.31524	-1.67997	1.00246
31	0.762995	-0.51373	0.919826	36.177	1.31524	-1.67997	1.00246
32	0.757857	-0.502689	0.90942	37.0864	1.31524	-1.67997	1.00246
33	0.75283	-0.49185	0.899261	37.9857	1.31524	-1.67997	1.00246
34	0.747912	-0.481209	0.889345	38.875	1.31524	-1.67997	1.00246
35	0.7431	-0.470762	0.879667	39.7547	1.31524	-1.67997	1.00246
36	0.738392	-0.460505	0.870223	40.6249	1.31524	-1.67997	1.00246
37	0.733787	-0.450436	0.861009	41.4859	1.31524	-1.67997	1.00246
38	0.729283	-0.440551	0.85202	42.3379	1.31524	-1.67997	1.00246
39	0.724877	-0.430845	0.843253	43.1812	1.31524	-1.67997	1.00246
40	0.720569	-0.421317	0.834702	44.0159	1.31524	-1.67997	1.00246
41	0.716356	-0.411963	0.826365	44.8423	1.31524	-1.67997	1.00246
42	0.712236	-0.402779	0.818236	45.6605	1.31524	-1.67997	1.00246
43	0.708208	-0.393762	0.810313	46.4708	1.31524	-1.67997	1.00246
44	0.704271	-0.384909	0.802591	47.2734	1.31524	-1.67997	1.00246
45	0.700422	-0.376218	0.795066	48.0685	1.31524	-1.67997	1.00246
46	0.696659	-0.367685	0.787735	48.8562	1.31524	-1.67997	1.00246
47	0.692983	-0.359307	0.780594	49.6368	1.31524	-1.67997	1.00246
48	0.689389	-0.351082	0.773638	50.4104	1.31524	-1.67997	1.00246
49	0.685879	-0.343006	0.766865	51.1773	1.31524	-1.67997	1.00246
50	0.682449	-0.335077	0.760271	51.9376	1.31524	-1.67997	1.00246
51	0.679098	-0.327292	0.753853	52.6914	1.31524	-1.67997	1.00246
52	0.675825	-0.319649	0.747606	53.439	1.31524	-1.67997	1.00246
53	0.672628	-0.312144	0.741527	54.1806	1.31524	-1.67997	1.00246
54	0.669507	-0.304775	0.735614	54.9162	1.31524	-1.67997	1.00246
55	0.666459	-0.297541	0.729862	55.646	1.31524	-1.67997	1.00246
56	0.663484	-0.290437	0.724268	56.3703	1.31524	-1.67997	1.00246
57	0.660579	-0.283462	0.71883	57.0891	1.31524	-1.67997	1.00246
58	0.657745	-0.276614	0.713543	57.8027	1.31524	-1.67997	1.00246
59	0.654979	-0.269889	0.708405	58.5111	1.31524	-1.67997	1.00246
60	0.65228	-0.263287	0.703412	59.2145	1.31524	-1.67997	1.00246
61	0.649647	-0.256804	0.698562	59.9131	1.31524	-1.67997	1.00246
62	0.647079	-0.250438	0.693852	60.6069	1.31524	-1.67997	1.00246
63	0.644574	-0.244187	0.689278	61.2962	1.31524	-1.67997	1.00246
64	0.642133	-0.238049	0.684837	61.981	1.31524	-1.67997	1.00246
65	0.639752	-0.232023	0.680527	62.6615	1.31524	-1.67997	1.00246
66	0.637432	-0.226105	0.676345	63.3379	1.31524	-1.67997	1.00246
67	0.635171	-0.220293	0.672288	64.0102	1.31524	-1.67997	1.00246
68	0.632968	-0.214587	0.668353	64.6785	1.31524	-1.67997	1.00246
69	0.630822	-0.208983	0.664538	65.3431	1.31524	-1.67997	1.00246
70	0.628732	-0.203481	0.660839	66.0039	1.31524	-1.67997	1.00246
71	0.626697	-0.198077	0.657255	66.6612	1.31524	-1.67997	1.00246
72	0.624717	-0.192771	0.653783	67.3149	1.31524	-1.67997	1.00246
73	0.622789	-0.18756	0.650419	67.9654	1.31524	-1.67997	1.00246
74	0.620913	-0.182443	0.647162	68.6125	1.31524	-1.67997	1.00246
75	0.619089	-0.177418	0.64401	69.2565	1.31524	-1.67997	1.00246
76	0.617315	-0.172483	0.640959	69.8975	1.31524	-1.67997	1.00246
77	0.61559	-0.167637	0.638007	70.5355	1.31524	-1.67997	1.00246
78	0.613913	-0.162878	0.635153	71.1707	1.31524	-1.67997	1.00246
79	0.612285	-0.158204	0.632393	71.8031	1.31524	-1.67997	1.00246
80	0.610703	-0.153613	0.629726	72.4328	1.31524	-1.67997	1.00246
81	0.609167	-0.149105	0.627149	73.0599	1.31524	-1.67997	1.00246
82	0.607675	-0.144677	0.624661	73.6846	1.31524	-1.67997	1.00246
83	0.606229	-0.140329	0.622258	74.3068	1.31524	-1.67997	1.00246
84	0.604825	-0.136058	0.61994	74.9268	1.31524	-1.67997	1.00246
85	0.603465	-0.131864	0.617704	75.5445	1.31524	-1.67997	1.00246
86	0.602146	-0.127744	0.615547	76.16	1.31524	-1.67997	1.00246
87	0.600869	-0.123698	0.613469	76.7735	1.31524	-1.67997	1.00246
88	0.599632	-0.119724	0.611467	77.385	1.31524	-1.67997	1.00246
89	0.598435	-0.11582	0.609539	77.9945	1.31524	-1.67997	1.00246
90	0.597276	-0.111986	0.607684	78.6022	1.31524	-1.67997	1.00246
91	0.596156	-0.10822	0.605899	79.2081	1.31524	-1.67997	1.00246
92	0.595074	-0.104521	0.604184	79.8123	1.31524	-1.67997	1.00246
93	0.594029	-0.100887	0.602535	80.4148	1.31524	-1.67997	1.00246
94	0.59302	-0.0973184	0.600952	81.0158	1.31524	-1.67997	1.00246
95	0.592047	-0.0938125	0.599433	81.6152	1.31524	-1.67997	1.00246
96	0.591109	-0.0903686	0.597977	82.2132	1.31524	-1.67997	1.00246
97	0.590205	-0.0869856	0.596581	82.8098	1.31524	-1.67997	1.00246
98	0.589335	-0.0836623	0.595244	83.405	1.31524	-1.67997	1.00246
99	0.588499	-0.0803976	0.593965	83.999	1.31524	-1.67997	1.00246


t	x[0]	x[1]	P	theta[0]	theta[1]	theta[2]
0	0.99	-0.980068	1.39307	1.39307	1.31424	-1.67897	1.00246
1	0.980199	-0.960501	1.37235	2.76542	1.31424	-1.67897	1.00246
2	0.970594	-0.941294	1.35207	4.11749	1.31424	-1.67897	1.00246
3	0.961181	-0.922438	1.3322	5.44969	1.31424	-1.67897	1.00246
4	0.951957	-0.903929	1.31275	6.76244	1.31424	-1.67897	1.00246
5	0.942918	-0.885759	1.2937	8.05614	1.31424	-1.67897	1.00246
6	0.93406	-0.867922	1.27505	9.33119	1.31424	-1.67897	1.00246
7	0.925381	-0.850412	1.25679	10.588	1.31424	-1.67897	1.00246
8	0.916877	-0.833223	1.23892	11.8269	1.31424	-1.67897	1.00246
9	0.908545	-0.816349	1.22142	13.0483	1.31424	-1.67897	1.00246
10	0.900381	-0.799784	1.2043	14.2526	1.31424	-1.67897	1.00246
11	0.892383	-0.783523	1.18754	15.4402	1.31424	-1.67897	1.00246
12	0.884548	-0.767559	1.17114	16.6113	1.31424	-1.67897	1.00246
13	0.876872	-0.751889	1.15509	17.7664	1.31424	-1.67897	1.00246
14	0.869354	-0.736505	1.13939	18.9058	1.31424	-1.67897	1.00246
15	0.861988	-0.721403	1.12403	20.0298	1.31424	-1.67897	1.00246
16	0.854774	-0.706578	1.109	21.1388	1.31424	-1.67897	1.00246
17	0.847709	-0.692024	1.09431	22.2331	1.31424	-1.67897	1.00246
18	0.840788	-0.677736	1.07993	23.3131	1.31424	-1.67897	1.00246
19	0.834011	-0.66371	1.06587	24.3789	1.31424	-1.67897	1.00246
20	0.827374	-0.649941	1.05213	25.4311	1.31424	-1.67897	1.00246
21	0.820875	-0.636424	1.03869	26.4698	1.31424	-1.67897	1.00246
22	0.81451	-0.623154	1.02555	27.4953	1.31424	-1.67897	1.00246
23	0.808279	-0.610126	1.0127	28.508	1.31424	-1.67897	1.00246
24	0.802178	-0.597338	1.00015	29.5082	1.31424	-1.67897	1.00246
25	0.796204	-0.584782	0.987882	30.496	1.31424	-1.67897	1.00246
26	0.790356	-0.572457	0.975894	31.4719	1.31424	-1.67897	1.00246
27	0.784632	-0.560357	0.964182	32.4361	1.31424	-1.67897	1.00246
28	0.779028	-0.548477	0.952739	33.3889	1.31424	-1.67897	1.00246
29	0.773543	-0.536815	0.941563	34.3304	1.31424	-1.67897	1.00246
30	0.768175	-0.525366	0.930647	35.2611	1.31424	-1.67897	1.00246
31	0.762922	-0.514126	0.919987	36.1811	1.31424	-1.67897	1.00246
32	0.75778	-0.503092	0.909578	37.0906	1.31424	-1.67897	1.00246
33	0.752749	-0.492258	0.899416	37.99	1.31424	-1.67897	1.00246
34	0.747827	-0.481623	0.889497	38.8795	1.31424	-1.67897	1.00246
35	0.743011	-0.471181	0.879816	39.7594	1.31424	-1.67897	1.00246
36	0.738299	-0.46093	0.870369	40.6297	1.31424	-1.67897	1.00246
37	0.733689	-0.450866	0.861151	41.4909	1.31424	-1.67897	1.00246
38	0.729181	-0.440986	0.852158	42.343	1.31424	-1.67897	1.00246
39	0.724771	-0.431285	0.843386	43.1864	1.31424	-1.67897	1.00246
40	0.720458	-0.421762	0.834831	44.0213	1.31424	-1.67897	1.00246
41	0.71624	-0.412411	0.826489	44.8477	1.31424	-1.67897	1.00246
42	0.712116	-0.403231	0.818355	45.6661	1.31424	-1.67897	1.00246
43	0.708084	-0.394219	0.810427	46.4765	1.31424	-1.67897	1.00246
44	0.704142	-0.38537	0.802699	47.2792	1.31424	-1.67897	1.00246
45	0.700288	-0.376682	0.795169	48.0744	1.31424	-1.67897	1.00246
46	0.696521	-0.368153	0.787831	48.8622	1.31424	-1.67897	1.00246
47	0.69284	-0.359778	0.780684	49.6429	1.31424	-1.67897	1.00246
48	0.689242	-0.351556	0.773722	50.4166	1.31424	-1.67897	1.00246
49	0.685726	-0.343483	0.766943	51.1836	1.31424	-1.67897	1.00246
50	0.682292	-0.335556	0.760342	51.9439	1.31424	-1.67897	1.00246
51	0.678936	-0.327774	0.753917	52.6978	1.31424	-1.67897	1.00246
52	0.675658	-0.320133	0.747663	53.4455	1.31424	-1.67897	1.00246
53	0.672457	-0.312631	0.741577	54.1871	1.31424	-1.67897	1.00246
54	0.669331	-0.305264	0.735656	54.9227	1.31424	-1.67897	1.00246
55	0.666278	-0.298032	0.729897	55.6526	1.31424	-1.67897	1.00246
56	0.663298	-0.29093	0.724296	56.3769	1.31424	-1.67897	1.00246
57	0.660388	-0.283957	0.718849	57.0958	1.31424	-1.67897	1.00246
58	0.657549	-0.27711	0.713555	57.8093	1.31424	-1.67897	1.00246
59	0.654778	-0.270388	0.708409	58.5177	1.31424	-1.67897	1.00246
60	0.652074	-0.263786	0.703409	59.2211	1.31424	-1.67897	1.00246
61	0.649436	-0.257305	0.698551	59.9197	1.31424	-1.67897	1.00246
62	0.646863	-0.25094	0.693832	60.6135	1.31424	-1.67897	1.00246
63	0.644354	-0.244691	0.68925	61.3028	1.31424	-1.67897	1.00246
64	0.641907	-0.238554	0.684801	61.9876	1.31424	-1.67897	1.00246
65	0.639521	-0.232528	0.680483	62.6681	1.31424	-1.67897	1.00246
66	0.637196	-0.226611	0.676292	63.3444	1.31424	-1.67897	1.00246
67	0.63493	-0.220801	0.672227	64.0166	1.31424	-1.67897	1.00246
68	0.632722	-0.215095	0.668283	64.6849	1.31424	-1.67897	1.00246
69	0.630571	-0.209492	0.66446	65.3493	1.31424	-1.67897	1.00246
70	0.628476	-0.203991	0.660753	66.0101	1.31424	-1.67897	1.00246
71	0.626436	-0.198588	0.65716	66.6672	1.31424	-1.67897	1.00246
72	0.62445	-0.193282	0.653679	67.3209	1.31424	-1.67897	1.00246
73	0.622517	-0.188072	0.650307	67.9712	1.31424	-1.67897	1.00246
74	0.620637	-0.182955	0.647041	68.6183	1.31424	-1.67897	1.00246
75	0.618807	-0.17793	0.64388	69.2621	1.31424	-1.67897	1.00246
76	0.617028	-0.172995	0.64082	69.903	1.31424	-1.67897	1.00246
77	0.615298	-0.168149	0.63786	70.5408	1.31424	-1.67897	1.00246
78	0.613616	-0.16339	0.634997	71.1758	1.31424	-1.67897	1.00246
79	0.611982	-0.158716	0.632229	71.808	1.31424	-1.67897	1.00246
80	0.610395	-0.154126	0.629553	72.4376	1.31424	-1.67897	1.00246
81	0.608854	-0.149618	0.626968	73.0646	1.31424	-1.67897	1.00246
82	0.607358	-0.14519	0.624471	73.689	1.31424	-1.67897	1.00246
83	0.605906	-0.140841	0.62206	74.3111	1.31424	-1.67897	1.00246
84	0.604497	-0.136571	0.619733	74.9308	1.31424	-1.67897	1.00246
85	0.603132	-0.132376	0.617488	75.5483	1.31424	-1.67897	1.00246
86	0.601808	-0.128256	0.615323	76.1636	1.31424	-1.67897	1.00246
87	0.600525	-0.124209	0.613236	76.7769	1.31424	-1.67897	1.00246
88	0.599283	-0.120235	0.611226	77.3881	1.31424	-1.67897	1.00246
89	0.598081	-0.116331	0.60929	77.9974	1.31424	-1.67897	1.00246
90	0.596918	-0.112497	0.607426	78.6048	1.31424	-1.67897	1.00246
91	0.595793	-0.10873	0.605633	79.2105	1.31424	-1.67897	1.00246
92	0.594705	-0.105031	0.603909	79.8144	1.31424	-1.67897	1.00246
93	0.593655	-0.101397	0.602252	80.4166	1.31424	-1.67897	1.00246
94	0.592641	-0.0978275	0.600661	81.0173	1.31424	-1.67897	1.00246
95	0.591663	-0.0943211	0.599134	81.6164	1.31424	-1.67897	1.00246
96	0.59072	-0.0908768	0.597669	82.2141	1.31424	-1.67897	1.00246
97	0.589811	-0.0874932	0.596265	82.8103	1.31424	-1.67897	1.00246
98	0.588936	-0.0841694	0.59492	83.4053	1.31424	-1.67897	1.00246
99	0.588094	-0.0809042	0.593633	83.9989	1.31424	-1.67897	1.00246


t	x[0]	x[1]	P	theta[0]	theta[1]	theta[2]
0	0.99	-0.980058	1.39306	1.39306	1.31424	-1.67997	1.00346
1	0.980199	-0.960482	1.37234	2.7654	1.31424	-1.67997	1.00346
2	0.970595	-0.941264	1.35205	4.11745	1.31424	-1.67997	1.00346
3	0.961182	-0.9224	1.33218	5.44962	1.31424	-1.67997	1.00346
4	0.951958	-0.903881	1.31272	6.76234	1.31424	-1.67997	1.00346
5	0.942919	-0.885701	1.29366	8.056	1.31424	-1.67997	1.00346
6	0.934062	-0.867856	1.27501	9.33101	1.31424	-1.67997	1.00346
7	0.925384	-0.850337	1.25674	10.5878	1.31424	-1.67997	1.00346
8	0.91688	-0.833139	1.23887	11.8266	1.31424	-1.67997	1.00346
9	0.908549	-0.816257	1.22137	13.048	1.31424	-1.67997	1.00346
10	0.900386	-0.799684	1.20424	14.2522	1.31424	-1.67997	1.00346
11	0.892389	-0.783415	1.18748	15.4397	1.31424	-1.67997	1.00346
12	0.884555	-0.767444	1.17107	16.6108	1.31424	-1.67997	1.00346
