
Current theta : [ -3.98119 , 2.89581 ] 


t	x[0]	x[1]	P	theta[0]	theta[1]	theta[2]
0	0.999	0.146916	1.00975	1.00975	-3.98119	2.89581	0
1	0.997531	0.192421	1.01592	2.02567	-3.98119	2.89581	0
2	0.995607	0.236528	1.02332	3.04898	-3.98119	2.89581	0
3	0.993241	0.279251	1.03175	4.08073	-3.98119	2.89581	0
4	0.990449	0.320602	1.04104	5.12178	-3.98119	2.89581	0
5	0.987243	0.360593	1.05104	6.17281	-3.98119	2.89581	0
6	0.983637	0.399236	1.06157	7.23438	-3.98119	2.89581	0
7	0.979645	0.436542	1.07251	8.30689	-3.98119	2.89581	0
8	0.975279	0.472522	1.08372	9.39061	-3.98119	2.89581	0
9	0.970554	0.507189	1.09509	10.4857	-3.98119	2.89581	0
10	0.965482	0.540552	1.1065	11.5922	-3.98119	2.89581	0
11	0.960076	0.572625	1.11788	12.7101	-3.98119	2.89581	0
12	0.95435	0.603418	1.12911	13.8392	-3.98119	2.89581	0
13	0.948316	0.632943	1.14014	14.9793	-3.98119	2.89581	0
14	0.941987	0.661215	1.15089	16.1302	-3.98119	2.89581	0
15	0.935374	0.688244	1.16129	17.2915	-3.98119	2.89581	0
16	0.928492	0.714046	1.17131	18.4628	-3.98119	2.89581	0
17	0.921352	0.738634	1.18088	19.6437	-3.98119	2.89581	0
18	0.913965	0.762022	1.18996	20.8337	-3.98119	2.89581	0
19	0.906345	0.784227	1.19853	22.0322	-3.98119	2.89581	0
20	0.898503	0.805264	1.20655	23.2387	-3.98119	2.89581	0
21	0.89045	0.825149	1.21399	24.4527	-3.98119	2.89581	0
22	0.882199	0.843901	1.22084	25.6736	-3.98119	2.89581	0
23	0.87376	0.861536	1.22707	26.9006	-3.98119	2.89581	0
24	0.865144	0.878073	1.23267	28.1333	-3.98119	2.89581	0
25	0.856364	0.893532	1.23764	29.371	-3.98119	2.89581	0
26	0.847428	0.907931	1.24196	30.6129	-3.98119	2.89581	0
27	0.838349	0.921292	1.24564	31.8585	-3.98119	2.89581	0
28	0.829136	0.933635	1.24866	33.1072	-3.98119	2.89581	0
29	0.8198	0.944982	1.25102	34.3582	-3.98119	2.89581	0
30	0.81035	0.955354	1.25274	35.611	-3.98119	2.89581	0
31	0.800796	0.964773	1.25382	36.8648	-3.98119	2.89581	0
32	0.791149	0.973263	1.25426	38.119	-3.98119	2.89581	0
33	0.781416	0.980847	1.25406	39.3731	-3.98119	2.89581	0
34	0.771607	0.987548	1.25325	40.6264	-3.98119	2.89581	0
35	0.761732	0.99339	1.25182	41.8782	-3.98119	2.89581	0
36	0.751798	0.998397	1.2498	43.128	-3.98119	2.89581	0
37	0.741814	1.00259	1.24719	44.3752	-3.98119	2.89581	0
38	0.731788	1.006	1.24401	45.6192	-3.98119	2.89581	0
39	0.721728	1.00865	1.24027	46.8594	-3.98119	2.89581	0
40	0.711642	1.01056	1.23599	48.0954	-3.98119	2.89581	0
41	0.701536	1.01175	1.23118	49.3266	-3.98119	2.89581	0
42	0.691419	1.01226	1.22586	50.5525	-3.98119	2.89581	0
43	0.681296	1.01211	1.22005	51.7725	-3.98119	2.89581	0
44	0.671175	1.01131	1.21377	52.9863	-3.98119	2.89581	0
45	0.661062	1.0099	1.20702	54.1933	-3.98119	2.89581	0
46	0.650963	1.0079	1.19984	55.3931	-3.98119	2.89581	0
47	0.640884	1.00533	1.19223	56.5854	-3.98119	2.89581	0
48	0.63083	1.00222	1.18422	57.7696	-3.98119	2.89581	0
49	0.620808	0.998584	1.17583	58.9454	-3.98119	2.89581	0
50	0.610822	0.994453	1.16707	60.1125	-3.98119	2.89581	0
51	0.600878	0.989848	1.15795	61.2704	-3.98119	2.89581	0
52	0.590979	0.98479	1.14851	62.419	-3.98119	2.89581	0
53	0.581131	0.979301	1.13875	63.5577	-3.98119	2.89581	0
54	0.571338	0.973404	1.12869	64.6864	-3.98119	2.89581	0
55	0.561604	0.967119	1.11836	65.8047	-3.98119	2.89581	0
56	0.551933	0.960467	1.10776	66.9125	-3.98119	2.89581	0
57	0.542329	0.953467	1.09691	68.0094	-3.98119	2.89581	0
58	0.532794	0.946141	1.08584	69.0953	-3.98119	2.89581	0
59	0.523332	0.938506	1.07456	70.1698	-3.98119	2.89581	0
60	0.513947	0.930582	1.06307	71.2329	-3.98119	2.89581	0
61	0.504642	0.922387	1.05141	72.2843	-3.98119	2.89581	0
62	0.495418	0.913939	1.03958	73.3239	-3.98119	2.89581	0
63	0.486278	0.905254	1.0276	74.3515	-3.98119	2.89581	0
64	0.477226	0.89635	1.01547	75.3669	-3.98119	2.89581	0
65	0.468262	0.887243	1.00323	76.3702	-3.98119	2.89581	0
66	0.45939	0.877948	0.990875	77.3611	-3.98119	2.89581	0
67	0.45061	0.868481	0.978422	78.3395	-3.98119	2.89581	0
68	0.441926	0.858856	0.965884	79.3054	-3.98119	2.89581	0
69	0.433337	0.849087	0.953273	80.2586	-3.98119	2.89581	0
70	0.424846	0.839188	0.940601	81.1992	-3.98119	2.89581	0
71	0.416454	0.829172	0.927879	82.1271	-3.98119	2.89581	0
72	0.408163	0.819051	0.915118	83.0422	-3.98119	2.89581	0
73	0.399972	0.808838	0.902329	83.9446	-3.98119	2.89581	0
74	0.391884	0.798545	0.88952	84.8341	-3.98119	2.89581	0
75	0.383898	0.788182	0.876703	85.7108	-3.98119	2.89581	0
76	0.376016	0.77776	0.863886	86.5747	-3.98119	2.89581	0
77	0.368239	0.76729	0.851078	87.4257	-3.98119	2.89581	0
78	0.360566	0.756781	0.838287	88.264	-3.98119	2.89581	0
79	0.352998	0.746242	0.825521	89.0896	-3.98119	2.89581	0
80	0.345536	0.735683	0.812788	89.9023	-3.98119	2.89581	0
81	0.338179	0.725113	0.800096	90.7024	-3.98119	2.89581	0
82	0.330928	0.714538	0.78745	91.4899	-3.98119	2.89581	0
83	0.323782	0.703968	0.774858	92.2647	-3.98119	2.89581	0
84	0.316743	0.693409	0.762326	93.0271	-3.98119	2.89581	0
85	0.309809	0.682868	0.74986	93.7769	-3.98119	2.89581	0
86	0.30298	0.672352	0.737465	94.5144	-3.98119	2.89581	0
87	0.296256	0.661868	0.725146	95.2395	-3.98119	2.89581	0
88	0.289638	0.651421	0.712909	95.9525	-3.98119	2.89581	0
89	0.283123	0.641017	0.700757	96.6532	-3.98119	2.89581	0
90	0.276713	0.63066	0.688696	97.3419	-3.98119	2.89581	0
91	0.270407	0.620358	0.67673	98.0186	-3.98119	2.89581	0
92	0.264203	0.610113	0.664861	98.6835	-3.98119	2.89581	0
93	0.258102	0.59993	0.653095	99.3366	-3.98119	2.89581	0
94	0.252103	0.589814	0.641433	99.978	-3.98119	2.89581	0
95	0.246205	0.579769	0.62988	100.608	-3.98119	2.89581	0
96	0.240407	0.569797	0.618437	101.226	-3.98119	2.89581	0
97	0.234709	0.559904	0.607108	101.833	-3.98119	2.89581	0
98	0.22911	0.550091	0.595895	102.429	-3.98119	2.89581	0
99	0.223609	0.540361	0.5848	103.014	-3.98119	2.89581	0
100	0.218205	0.530718	0.573825	103.588	-3.98119	2.89581	0
101	0.212898	0.521164	0.562972	104.151	-3.98119	2.89581	0
102	0.207686	0.511702	0.552243	104.703	-3.98119	2.89581	0
103	0.202569	0.502333	0.541639	105.245	-3.98119	2.89581	0
104	0.197546	0.493059	0.531161	105.776	-3.98119	2.89581	0
105	0.192616	0.483883	0.520811	106.297	-3.98119	2.89581	0
106	0.187777	0.474806	0.510589	106.807	-3.98119	2.89581	0
107	0.183029	0.46583	0.500496	107.308	-3.98119	2.89581	0
108	0.17837	0.456955	0.490534	107.798	-3.98119	2.89581	0
109	0.173801	0.448183	0.480702	108.279	-3.98119	2.89581	0
110	0.169319	0.439515	0.471002	108.75	-3.98119	2.89581	0
111	0.164924	0.430953	0.461433	109.212	-3.98119	2.89581	0
112	0.160614	0.422496	0.451995	109.664	-3.98119	2.89581	0
113	0.156389	0.414146	0.44269	110.106	-3.98119	2.89581	0
114	0.152248	0.405903	0.433516	110.54	-3.98119	2.89581	0
115	0.148189	0.397767	0.424475	110.964	-3.98119	2.89581	0
116	0.144211	0.38974	0.415565	111.38	-3.98119	2.89581	0
117	0.140314	0.381821	0.406787	111.787	-3.98119	2.89581	0
118	0.136496	0.37401	0.398139	112.185	-3.98119	2.89581	0
119	0.132755	0.366309	0.389623	112.574	-3.98119	2.89581	0
120	0.129092	0.358715	0.381237	112.956	-3.98119	2.89581	0
121	0.125505	0.35123	0.37298	113.329	-3.98119	2.89581	0
122	0.121993	0.343854	0.364853	113.693	-3.98119	2.89581	0
123	0.118554	0.336586	0.356855	114.05	-3.98119	2.89581	0
124	0.115189	0.329426	0.348984	114.399	-3.98119	2.89581	0
125	0.111894	0.322374	0.341241	114.74	-3.98119	2.89581	0
126	0.108671	0.315429	0.333623	115.074	-3.98119	2.89581	0
127	0.105516	0.30859	0.326131	115.4	-3.98119	2.89581	0
128	0.10243	0.301859	0.318764	115.719	-3.98119	2.89581	0
129	0.0994117	0.295233	0.311521	116.031	-3.98119	2.89581	0
130	0.0964594	0.288712	0.3044	116.335	-3.98119	2.89581	0
131	0.0935723	0.282296	0.2974	116.632	-3.98119	2.89581	0
132	0.0907493	0.275984	0.290521	116.923	-3.98119	2.89581	0
133	0.0879895	0.269775	0.283762	117.207	-3.98119	2.89581	0
134	0.0852917	0.263669	0.277121	117.484	-3.98119	2.89581	0
135	0.082655	0.257665	0.270598	117.754	-3.98119	2.89581	0
136	0.0800784	0.251762	0.26419	118.019	-3.98119	2.89581	0
137	0.0775608	0.245958	0.257898	118.276	-3.98119	2.89581	0
138	0.0751012	0.240255	0.251719	118.528	-3.98119	2.89581	0
139	0.0726986	0.234649	0.245653	118.774	-3.98119	2.89581	0
140	0.0703522	0.229141	0.239698	119.013	-3.98119	2.89581	0
141	0.0680607	0.22373	0.233853	119.247	-3.98119	2.89581	0
142	0.0658234	0.218415	0.228118	119.475	-3.98119	2.89581	0
143	0.0636393	0.213194	0.22249	119.698	-3.98119	2.89581	0
144	0.0615074	0.208067	0.216968	119.915	-3.98119	2.89581	0
145	0.0594267	0.203033	0.211551	120.126	-3.98119	2.89581	0
146	0.0573964	0.19809	0.206238	120.333	-3.98119	2.89581	0
147	0.0554155	0.193239	0.201027	120.534	-3.98119	2.89581	0
148	0.0534831	0.188477	0.195918	120.73	-3.98119	2.89581	0
149	0.0515983	0.183803	0.190909	120.921	-3.98119	2.89581	0
150	0.0497603	0.179218	0.185998	121.107	-3.98119	2.89581	0
151	0.0479681	0.174719	0.181184	121.288	-3.98119	2.89581	0
152	0.0462209	0.170306	0.176466	121.464	-3.98119	2.89581	0
153	0.0445179	0.165977	0.171843	121.636	-3.98119	2.89581	0
154	0.0428581	0.161731	0.167314	121.803	-3.98119	2.89581	0
155	0.0412408	0.157569	0.162876	121.966	-3.98119	2.89581	0
156	0.0396651	0.153487	0.158529	122.125	-3.98119	2.89581	0
157	0.0381302	0.149486	0.154272	122.279	-3.98119	2.89581	0
158	0.0366354	0.145563	0.150103	122.429	-3.98119	2.89581	0
159	0.0351797	0.141719	0.146021	122.575	-3.98119	2.89581	0
160	0.0337625	0.137952	0.142024	122.717	-3.98119	2.89581	0
161	0.032383	0.134261	0.138111	122.855	-3.98119	2.89581	0
162	0.0310404	0.130645	0.134282	122.99	-3.98119	2.89581	0
163	0.0297339	0.127103	0.130535	123.12	-3.98119	2.89581	0
164	0.0284629	0.123634	0.126868	123.247	-3.98119	2.89581	0
165	0.0272266	0.120236	0.12328	123.37	-3.98119	2.89581	0
166	0.0260242	0.116909	0.11977	123.49	-3.98119	2.89581	0
167	0.0248551	0.113651	0.116337	123.606	-3.98119	2.89581	0
168	0.0237186	0.110462	0.11298	123.719	-3.98119	2.89581	0
169	0.022614	0.107341	0.109697	123.829	-3.98119	2.89581	0
170	0.0215406	0.104286	0.106488	123.936	-3.98119	2.89581	0
171	0.0204977	0.101297	0.10335	124.039	-3.98119	2.89581	0
172	0.0194847	0.0983721	0.100283	124.139	-3.98119	2.89581	0
173	0.018501	0.0955106	0.097286	124.236	-3.98119	2.89581	0
174	0.0175459	0.0927116	0.0943573	124.331	-3.98119	2.89581	0
175	0.0166188	0.089974	0.0914959	124.422	-3.98119	2.89581	0
176	0.0157191	0.0872969	0.0887008	124.511	-3.98119	2.89581	0
177	0.0148461	0.0846791	0.0859707	124.597	-3.98119	2.89581	0
178	0.0139993	0.0821199	0.0833046	124.68	-3.98119	2.89581	0
179	0.0131781	0.0796182	0.0807014	124.761	-3.98119	2.89581	0
180	0.0123819	0.077173	0.0781599	124.839	-3.98119	2.89581	0
181	0.0116102	0.0747833	0.0756792	124.915	-3.98119	2.89581	0
182	0.0108624	0.0724483	0.0732581	124.988	-3.98119	2.89581	0
183	0.0101379	0.070167	0.0708956	125.059	-3.98119	2.89581	0
184	0.00943621	0.0679385	0.0685907	125.128	-3.98119	2.89581	0
185	0.00875682	0.0657619	0.0663423	125.194	-3.98119	2.89581	0
186	0.00809921	0.0636361	0.0641495	125.258	-3.98119	2.89581	0
187	0.00746284	0.0615605	0.0620112	125.32	-3.98119	2.89581	0
188	0.00684724	0.059534	0.0599264	125.38	-3.98119	2.89581	0
189	0.0062519	0.0575557	0.0578943	125.438	-3.98119	2.89581	0
190	0.00567634	0.0556249	0.0559138	125.494	-3.98119	2.89581	0
191	0.00512009	0.0537406	0.053984	125.548	-3.98119	2.89581	0
192	0.00458269	0.0519021	0.052104	125.6	-3.98119	2.89581	0
193	0.00406367	0.0501083	0.0502728	125.65	-3.98119	2.89581	0
194	0.00356258	0.0483586	0.0484897	125.699	-3.98119	2.89581	0
195	0.003079	0.0466521	0.0467536	125.745	-3.98119	2.89581	0
196	0.00261247	0.044988	0.0450638	125.79	-3.98119	2.89581	0
197	0.00216259	0.0433655	0.0434194	125.834	-3.98119	2.89581	0
198	0.00172894	0.0417838	0.0418196	125.876	-3.98119	2.89581	0
199	0.0013111	0.0402421	0.0402635	125.916	-3.98119	2.89581	0
200	0.00090868	0.0387397	0.0387503	125.955	-3.98119	2.89581	0
201	0.000521283	0.0372757	0.0372794	125.992	-3.98119	2.89581	0
202	0.000148526	0.0358495	0.0358498	126.028	-3.98119	2.89581	0
203	-0.000209969	0.0344603	0.0344609	126.062	-3.98119	2.89581	0
204	-0.000554571	0.0331073	0.0331119	126.095	-3.98119	2.89581	0
205	-0.000885644	0.0317899	0.0318022	126.127	-3.98119	2.89581	0
206	-0.00120354	0.0305073	0.030531	126.158	-3.98119	2.89581	0
207	-0.00150862	0.0292588	0.0292977	126.187	-3.98119	2.89581	0
208	-0.0018012	0.0280438	0.0281016	126.215	-3.98119	2.89581	0
209	-0.00208164	0.0268615	0.0269421	126.242	-3.98119	2.89581	0
210	-0.00235026	0.0257114	0.0258186	126.268	-3.98119	2.89581	0
211	-0.00260737	0.0245926	0.0247305	126.293	-3.98119	2.89581	0
212	-0.0028533	0.0235047	0.0236772	126.316	-3.98119	2.89581	0
213	-0.00308834	0.0224469	0.0226583	126.339	-3.98119	2.89581	0
214	-0.00331281	0.0214185	0.0216732	126.361	-3.98119	2.89581	0
215	-0.003527	0.0204191	0.0207215	126.381	-3.98119	2.89581	0
216	-0.00373119	0.0194479	0.0198026	126.401	-3.98119	2.89581	0
217	-0.00392567	0.0185044	0.0189162	126.42	-3.98119	2.89581	0
218	-0.00411071	0.017588	0.018062	126.438	-3.98119	2.89581	0
219	-0.00428659	0.016698	0.0172395	126.455	-3.98119	2.89581	0
220	-0.00445357	0.015834	0.0164484	126.472	-3.98119	2.89581	0
221	-0.00461191	0.0149953	0.0156885	126.488	-3.98119	2.89581	0
222	-0.00476187	0.0141814	0.0149595	126.503	-3.98119	2.89581	0
223	-0.00490368	0.0133917	0.0142613	126.517	-3.98119	2.89581	0
224	-0.0050376	0.0126257	0.0135936	126.53	-3.98119	2.89581	0
225	-0.00516385	0.0118829	0.0129564	126.543	-3.98119	2.89581	0
226	-0.00528268	0.0111628	0.0123497	126.556	-3.98119	2.89581	0
227	-0.00539431	0.0104647	0.0117733	126.567	-3.98119	2.89581	0
228	-0.00549896	0.00978836	0.0112272	126.579	-3.98119	2.89581	0
229	-0.00559684	0.00913312	0.0107116	126.589	-3.98119	2.89581	0
230	-0.00568817	0.00849852	0.0102264	126.6	-3.98119	2.89581	0
231	-0.00577316	0.0078841	0.00977181	126.609	-3.98119	2.89581	0
232	-0.005852	0.00728938	0.00934778	126.619	-3.98119	2.89581	0
233	-0.00592489	0.0067139	0.00895438	126.628	-3.98119	2.89581	0
234	-0.00599203	0.00615721	0.00859161	126.636	-3.98119	2.89581	0
235	-0.0060536	0.00561887	0.00825941	126.645	-3.98119	2.89581	0
236	-0.00610979	0.00509843	0.00795761	126.652	-3.98119	2.89581	0
237	-0.00616078	0.00459547	0.00768593	126.66	-3.98119	2.89581	0
238	-0.00620673	0.00410956	0.00744392	126.668	-3.98119	2.89581	0
239	-0.00624783	0.00364029	0.00723098	126.675	-3.98119	2.89581	0
240	-0.00628423	0.00318726	0.00704629	126.682	-3.98119	2.89581	0
241	-0.0063161	0.00275006	0.00688883	126.689	-3.98119	2.89581	0
242	-0.0063436	0.00232831	0.00675739	126.696	-3.98119	2.89581	0
243	-0.00636689	0.00192161	0.00665055	126.702	-3.98119	2.89581	0
244	-0.0063861	0.00152961	0.00656673	126.709	-3.98119	2.89581	0
245	-0.0064014	0.00115191	0.00650421	126.715	-3.98119	2.89581	0
246	-0.00641292	0.00078817	0.00646117	126.722	-3.98119	2.89581	0
247	-0.0064208	0.000438026	0.00643572	126.728	-3.98119	2.89581	0
248	-0.00642518	0.000101129	0.00642598	126.735	-3.98119	2.89581	0
249	-0.00642619	-0.000222861	0.00643005	126.741	-3.98119	2.89581	0
250	-0.00642396	-0.000534279	0.00644614	126.747	-3.98119	2.89581	0
251	-0.00641862	-0.000833454	0.0064725	126.754	-3.98119	2.89581	0
252	-0.00641028	-0.00112071	0.00650751	126.76	-3.98119	2.89581	0
253	-0.00639908	-0.00139636	0.00654966	126.767	-3.98119	2.89581	0
254	-0.00638511	-0.00166071	0.00659755	126.774	-3.98119	2.89581	0
255	-0.00636851	-0.00191406	0.00664993	126.78	-3.98119	2.89581	0
256	-0.00634937	-0.00215672	0.00670566	126.787	-3.98119	2.89581	0
257	-0.0063278	-0.00238898	0.00676375	126.794	-3.98119	2.89581	0
258	-0.00630391	-0.00261111	0.00682328	126.801	-3.98119	2.89581	0
259	-0.0062778	-0.00282339	0.00688348	126.807	-3.98119	2.89581	0
260	-0.00624956	-0.00302611	0.00694366	126.814	-3.98119	2.89581	0
261	-0.0062193	-0.00321952	0.00700322	126.821	-3.98119	2.89581	0
262	-0.00618711	-0.00340389	0.00706164	126.828	-3.98119	2.89581	0
263	-0.00615307	-0.00357947	0.00711849	126.836	-3.98119	2.89581	0
264	-0.00611727	-0.00374652	0.00717339	126.843	-3.98119	2.89581	0
265	-0.00607981	-0.00390528	0.00722601	126.85	-3.98119	2.89581	0
266	-0.00604076	-0.00405598	0.00727611	126.857	-3.98119	2.89581	0
267	-0.0060002	-0.00419887	0.00732345	126.865	-3.98119	2.89581	0
268	-0.00595821	-0.00433418	0.00736786	126.872	-3.98119	2.89581	0
269	-0.00591487	-0.00446212	0.00740919	126.879	-3.98119	2.89581	0
270	-0.00587024	-0.00458291	0.00744734	126.887	-3.98119	2.89581	0
271	-0.00582442	-0.00469678	0.00748222	126.894	-3.98119	2.89581	0
272	-0.00577745	-0.00480393	0.00751376	126.902	-3.98119	2.89581	0
273	-0.00572941	-0.00490456	0.00754194	126.909	-3.98119	2.89581	0
274	-0.00568036	-0.00499889	0.00756673	126.917	-3.98119	2.89581	0
275	-0.00563037	-0.00508709	0.00758812	126.924	-3.98119	2.89581	0
276	-0.0055795	-0.00516937	0.00760613	126.932	-3.98119	2.89581	0
277	-0.00552781	-0.0052459	0.00762077	126.94	-3.98119	2.89581	0
278	-0.00547535	-0.00531689	0.00763209	126.947	-3.98119	2.89581	0
279	-0.00542218	-0.00538249	0.00764011	126.955	-3.98119	2.89581	0
280	-0.00536836	-0.00544289	0.00764489	126.963	-3.98119	2.89581	0
281	-0.00531393	-0.00549825	0.00764648	126.97	-3.98119	2.89581	0
282	-0.00525895	-0.00554875	0.00764494	126.978	-3.98119	2.89581	0
283	-0.00520346	-0.00559454	0.00764034	126.986	-3.98119	2.89581	0
284	-0.00514751	-0.00563578	0.00763275	126.993	-3.98119	2.89581	0
285	-0.00509115	-0.00567263	0.00762224	127.001	-3.98119	2.89581	0
286	-0.00503443	-0.00570524	0.00760889	127.008	-3.98119	2.89581	0
287	-0.00497738	-0.00573375	0.00759277	127.016	-3.98119	2.89581	0
288	-0.00492004	-0.00575831	0.00757396	127.024	-3.98119	2.89581	0
289	-0.00486246	-0.00577905	0.00755254	127.031	-3.98119	2.89581	0
290	-0.00480466	-0.00579612	0.0075286	127.039	-3.98119	2.89581	0
291	-0.0047467	-0.00580964	0.00750221	127.046	-3.98119	2.89581	0
292	-0.00468861	-0.00581975	0.00747346	127.054	-3.98119	2.89581	0
293	-0.00463041	-0.00582658	0.00744243	127.061	-3.98119	2.89581	0
294	-0.00457214	-0.00583024	0.00740919	127.068	-3.98119	2.89581	0
295	-0.00451384	-0.00583085	0.00737384	127.076	-3.98119	2.89581	0
296	-0.00445553	-0.00582853	0.00733646	127.083	-3.98119	2.89581	0
297	-0.00439725	-0.0058234	0.00729711	127.09	-3.98119	2.89581	0
298	-0.00433901	-0.00581557	0.00725589	127.098	-3.98119	2.89581	0
299	-0.00428086	-0.00580514	0.00721287	127.105	-3.98119	2.89581	0
300	-0.00422281	-0.00579222	0.00716812	127.112	-3.98119	2.89581	0
301	-0.00416488	-0.00577692	0.00712173	127.119	-3.98119	2.89581	0
302	-0.00410712	-0.00575932	0.00707377	127.126	-3.98119	2.89581	0
303	-0.00404952	-0.00573953	0.00702431	127.133	-3.98119	2.89581	0
304	-0.00399213	-0.00571765	0.00697342	127.14	-3.98119	2.89581	0
305	-0.00393495	-0.00569375	0.00692118	127.147	-3.98119	2.89581	0
306	-0.00387801	-0.00566794	0.00686765	127.154	-3.98119	2.89581	0
307	-0.00382133	-0.0056403	0.0068129	127.161	-3.98119	2.89581	0
308	-0.00376493	-0.00561092	0.006757	127.168	-3.98119	2.89581	0
309	-0.00370882	-0.00557986	0.00670002	127.174	-3.98119	2.89581	0
310	-0.00365302	-0.00554723	0.00664201	127.181	-3.98119	2.89581	0
311	-0.00359755	-0.00551308	0.00658304	127.188	-3.98119	2.89581	0
312	-0.00354242	-0.0054775	0.00652317	127.194	-3.98119	2.89581	0
313	-0.00348764	-0.00544057	0.00646246	127.201	-3.98119	2.89581	0
314	-0.00343324	-0.00540234	0.00640097	127.207	-3.98119	2.89581	0
315	-0.00337922	-0.00536289	0.00633875	127.213	-3.98119	2.89581	0
316	-0.00332559	-0.00532229	0.00627585	127.22	-3.98119	2.89581	0
317	-0.00327236	-0.0052806	0.00621233	127.226	-3.98119	2.89581	0
318	-0.00321956	-0.00523788	0.00614824	127.232	-3.98119	2.89581	0
319	-0.00316718	-0.00519419	0.00608364	127.238	-3.98119	2.89581	0
320	-0.00311524	-0.0051496	0.00601856	127.244	-3.98119	2.89581	0
321	-0.00306374	-0.00510416	0.00595306	127.25	-3.98119	2.89581	0
322	-0.0030127	-0.00505792	0.00588718	127.256	-3.98119	2.89581	0
323	-0.00296212	-0.00501094	0.00582097	127.262	-3.98119	2.89581	0
324	-0.00291201	-0.00496327	0.00575447	127.267	-3.98119	2.89581	0
325	-0.00286238	-0.00491497	0.00568772	127.273	-3.98119	2.89581	0
326	-0.00281323	-0.00486607	0.00562075	127.279	-3.98119	2.89581	0
327	-0.00276457	-0.00481663	0.00555362	127.284	-3.98119	2.89581	0
328	-0.0027164	-0.00476669	0.00548636	127.29	-3.98119	2.89581	0
329	-0.00266873	-0.0047163	0.00541901	127.295	-3.98119	2.89581	0
