
Current theta : [ -4.8001 , 3.22956 ] 


t	x[0]	x[1]	P	theta[0]	theta[1]	theta[2]
0	0.999	0.154771	1.01092	1.01092	-4.8001	3.22956	0
1	0.997452	0.207713	1.01885	2.02977	-4.8001	3.22956	0
2	0.995375	0.258847	1.02848	3.05825	-4.8001	3.22956	0
3	0.992787	0.308197	1.03952	4.09777	-4.8001	3.22956	0
4	0.989705	0.355782	1.05171	5.14948	-4.8001	3.22956	0
5	0.986147	0.401622	1.06479	6.21428	-4.8001	3.22956	0
6	0.982131	0.445739	1.07855	7.29283	-4.8001	3.22956	0
7	0.977673	0.48815	1.09277	8.38559	-4.8001	3.22956	0
8	0.972792	0.528876	1.10726	9.49285	-4.8001	3.22956	0
9	0.967503	0.567934	1.12188	10.6147	-4.8001	3.22956	0
10	0.961824	0.605345	1.13646	11.7512	-4.8001	3.22956	0
11	0.95577	0.641129	1.15089	12.9021	-4.8001	3.22956	0
12	0.949359	0.675304	1.16504	14.0671	-4.8001	3.22956	0
13	0.942606	0.707892	1.17882	15.2459	-4.8001	3.22956	0
14	0.935527	0.738913	1.19214	16.4381	-4.8001	3.22956	0
15	0.928138	0.768389	1.20493	17.643	-4.8001	3.22956	0
16	0.920454	0.796342	1.21713	18.8601	-4.8001	3.22956	0
17	0.912491	0.822794	1.22867	20.0888	-4.8001	3.22956	0
18	0.904263	0.84777	1.23952	21.3283	-4.8001	3.22956	0
19	0.895785	0.871293	1.24963	22.578	-4.8001	3.22956	0
20	0.887072	0.893389	1.25898	23.8369	-4.8001	3.22956	0
21	0.878138	0.914084	1.26755	25.1045	-4.8001	3.22956	0
22	0.868997	0.933404	1.2753	26.3798	-4.8001	3.22956	0
23	0.859663	0.951376	1.28224	27.662	-4.8001	3.22956	0
24	0.850149	0.96803	1.28835	28.9504	-4.8001	3.22956	0
25	0.840469	0.983392	1.29362	30.244	-4.8001	3.22956	0
26	0.830635	0.997494	1.29806	31.5421	-4.8001	3.22956	0
27	0.82066	1.01036	1.30166	32.8437	-4.8001	3.22956	0
28	0.810557	1.02203	1.30444	34.1482	-4.8001	3.22956	0
29	0.800336	1.03253	1.30639	35.4546	-4.8001	3.22956	0
30	0.790011	1.0419	1.30754	36.7621	-4.8001	3.22956	0
31	0.779592	1.05015	1.30789	38.07	-4.8001	3.22956	0
32	0.76909	1.05734	1.30746	39.3774	-4.8001	3.22956	0
33	0.758517	1.06348	1.30627	40.6837	-4.8001	3.22956	0
34	0.747882	1.06861	1.30432	41.988	-4.8001	3.22956	0
35	0.737196	1.07277	1.30165	43.2897	-4.8001	3.22956	0
36	0.726469	1.07598	1.29827	44.588	-4.8001	3.22956	0
37	0.715709	1.07829	1.2942	45.8821	-4.8001	3.22956	0
38	0.704926	1.07972	1.28946	47.1716	-4.8001	3.22956	0
39	0.694129	1.0803	1.28408	48.4557	-4.8001	3.22956	0
40	0.683326	1.08007	1.27808	49.7338	-4.8001	3.22956	0
41	0.672525	1.07907	1.27149	51.0053	-4.8001	3.22956	0
42	0.661734	1.07732	1.26432	52.2696	-4.8001	3.22956	0
43	0.650961	1.07485	1.2566	53.5262	-4.8001	3.22956	0
44	0.640213	1.0717	1.24836	54.7745	-4.8001	3.22956	0
45	0.629496	1.0679	1.23962	56.0142	-4.8001	3.22956	0
46	0.618817	1.06347	1.23041	57.2446	-4.8001	3.22956	0
47	0.608182	1.05846	1.22074	58.4653	-4.8001	3.22956	0
48	0.597597	1.05288	1.21065	59.676	-4.8001	3.22956	0
49	0.587069	1.04677	1.20016	60.8761	-4.8001	3.22956	0
50	0.576601	1.04015	1.18928	62.0654	-4.8001	3.22956	0
51	0.566199	1.03306	1.17805	63.2435	-4.8001	3.22956	0
52	0.555869	1.02552	1.16648	64.4099	-4.8001	3.22956	0
53	0.545614	1.01755	1.1546	65.5645	-4.8001	3.22956	0
54	0.535438	1.00919	1.14244	66.707	-4.8001	3.22956	0
55	0.525346	1.00046	1.13	67.837	-4.8001	3.22956	0
56	0.515342	0.991372	1.11732	68.9543	-4.8001	3.22956	0
57	0.505428	0.981965	1.10441	70.0587	-4.8001	3.22956	0
58	0.495608	0.972256	1.09129	71.15	-4.8001	3.22956	0
59	0.485886	0.962268	1.07798	72.228	-4.8001	3.22956	0
60	0.476263	0.952022	1.06451	73.2925	-4.8001	3.22956	0
61	0.466743	0.941539	1.05088	74.3434	-4.8001	3.22956	0
62	0.457327	0.930838	1.03712	75.3805	-4.8001	3.22956	0
63	0.448019	0.91994	1.02324	76.4037	-4.8001	3.22956	0
64	0.43882	0.908863	1.00925	77.413	-4.8001	3.22956	0
65	0.429731	0.897624	0.995187	78.4081	-4.8001	3.22956	0
66	0.420755	0.886241	0.981049	79.3892	-4.8001	3.22956	0
67	0.411892	0.87473	0.966855	80.356	-4.8001	3.22956	0
68	0.403145	0.863107	0.952617	81.3087	-4.8001	3.22956	0
69	0.394514	0.851387	0.93835	82.247	-4.8001	3.22956	0
70	0.386	0.839584	0.924066	83.1711	-4.8001	3.22956	0
71	0.377604	0.827713	0.909777	84.0809	-4.8001	3.22956	0
72	0.369327	0.815786	0.895494	84.9764	-4.8001	3.22956	0
73	0.361169	0.803816	0.881228	85.8576	-4.8001	3.22956	0
74	0.353131	0.791815	0.86699	86.7246	-4.8001	3.22956	0
75	0.345213	0.779794	0.85279	87.5774	-4.8001	3.22956	0
76	0.337415	0.767764	0.838636	88.416	-4.8001	3.22956	0
77	0.329737	0.755736	0.824538	89.2405	-4.8001	3.22956	0
78	0.32218	0.743718	0.810504	90.051	-4.8001	3.22956	0
79	0.314743	0.731721	0.796542	90.8476	-4.8001	3.22956	0
80	0.307426	0.719753	0.782658	91.6302	-4.8001	3.22956	0
81	0.300228	0.707821	0.768862	92.3991	-4.8001	3.22956	0
82	0.29315	0.695935	0.755157	93.1543	-4.8001	3.22956	0
83	0.28619	0.684101	0.741552	93.8958	-4.8001	3.22956	0
84	0.279349	0.672327	0.728052	94.6239	-4.8001	3.22956	0
85	0.272626	0.660617	0.714661	95.3385	-4.8001	3.22956	0
86	0.26602	0.64898	0.701385	96.0399	-4.8001	3.22956	0
87	0.25953	0.637419	0.688229	96.7281	-4.8001	3.22956	0
88	0.253156	0.625942	0.675197	97.4033	-4.8001	3.22956	0
89	0.246897	0.614552	0.662293	98.0656	-4.8001	3.22956	0
90	0.240751	0.603254	0.64952	98.7151	-4.8001	3.22956	0
91	0.234719	0.592052	0.636882	99.352	-4.8001	3.22956	0
92	0.228798	0.580951	0.624382	99.9764	-4.8001	3.22956	0
93	0.222989	0.569954	0.612022	100.588	-4.8001	3.22956	0
94	0.217289	0.559064	0.599806	101.188	-4.8001	3.22956	0
95	0.211698	0.548285	0.587736	101.776	-4.8001	3.22956	0
96	0.206215	0.53762	0.575812	102.352	-4.8001	3.22956	0
97	0.200839	0.52707	0.564039	102.916	-4.8001	3.22956	0
98	0.195569	0.516639	0.552416	103.468	-4.8001	3.22956	0
99	0.190402	0.506328	0.540945	104.009	-4.8001	3.22956	0
100	0.185339	0.49614	0.529627	104.539	-4.8001	3.22956	0
101	0.180378	0.486076	0.518465	105.057	-4.8001	3.22956	0
102	0.175517	0.476137	0.507457	105.565	-4.8001	3.22956	0
103	0.170755	0.466325	0.496605	106.061	-4.8001	3.22956	0
104	0.166092	0.456642	0.48591	106.547	-4.8001	3.22956	0
105	0.161526	0.447087	0.475371	107.023	-4.8001	3.22956	0
106	0.157055	0.437663	0.464989	107.488	-4.8001	3.22956	0
107	0.152678	0.428369	0.454764	107.942	-4.8001	3.22956	0
108	0.148395	0.419206	0.444696	108.387	-4.8001	3.22956	0
109	0.144202	0.410175	0.434785	108.822	-4.8001	3.22956	0
110	0.140101	0.401276	0.42503	109.247	-4.8001	3.22956	0
111	0.136088	0.392508	0.415431	109.662	-4.8001	3.22956	0
112	0.132163	0.383873	0.405987	110.068	-4.8001	3.22956	0
113	0.128324	0.375369	0.396698	110.465	-4.8001	3.22956	0
114	0.12457	0.366997	0.387563	110.853	-4.8001	3.22956	0
115	0.1209	0.358757	0.378581	111.231	-4.8001	3.22956	0
116	0.117313	0.350648	0.369752	111.601	-4.8001	3.22956	0
117	0.113806	0.34267	0.361074	111.962	-4.8001	3.22956	0
118	0.11038	0.334822	0.352547	112.315	-4.8001	3.22956	0
119	0.107032	0.327103	0.344169	112.659	-4.8001	3.22956	0
120	0.10376	0.319514	0.335939	112.995	-4.8001	3.22956	0
121	0.100565	0.312052	0.327857	113.322	-4.8001	3.22956	0
122	0.0974448	0.304718	0.31992	113.642	-4.8001	3.22956	0
123	0.0943976	0.297511	0.312127	113.955	-4.8001	3.22956	0
124	0.0914225	0.290429	0.304478	114.259	-4.8001	3.22956	0
125	0.0885182	0.283472	0.296971	114.556	-4.8001	3.22956	0
126	0.0856835	0.276639	0.289604	114.846	-4.8001	3.22956	0
127	0.0829171	0.269928	0.282377	115.128	-4.8001	3.22956	0
128	0.0802179	0.263339	0.275286	115.403	-4.8001	3.22956	0
129	0.0775845	0.256871	0.268332	115.672	-4.8001	3.22956	0
130	0.0750158	0.250522	0.261512	115.933	-4.8001	3.22956	0
131	0.0725105	0.244291	0.254825	116.188	-4.8001	3.22956	0
132	0.0700676	0.238177	0.24827	116.436	-4.8001	3.22956	0
133	0.0676859	0.232179	0.241844	116.678	-4.8001	3.22956	0
134	0.0653641	0.226295	0.235546	116.914	-4.8001	3.22956	0
135	0.0631011	0.220525	0.229375	117.143	-4.8001	3.22956	0
136	0.0608959	0.214866	0.223329	117.366	-4.8001	3.22956	0
137	0.0587472	0.209318	0.217406	117.584	-4.8001	3.22956	0
138	0.056654	0.20388	0.211605	117.795	-4.8001	3.22956	0
139	0.0546152	0.198549	0.205924	118.001	-4.8001	3.22956	0
140	0.0526297	0.193325	0.200361	118.202	-4.8001	3.22956	0
141	0.0506965	0.188206	0.194915	118.396	-4.8001	3.22956	0
142	0.0488144	0.183191	0.189583	118.586	-4.8001	3.22956	0
143	0.0469825	0.178279	0.184365	118.77	-4.8001	3.22956	0
144	0.0451997	0.173467	0.179259	118.95	-4.8001	3.22956	0
145	0.0434651	0.168755	0.174263	119.124	-4.8001	3.22956	0
146	0.0417775	0.164142	0.169375	119.293	-4.8001	3.22956	0
147	0.0401361	0.159626	0.164594	119.458	-4.8001	3.22956	0
148	0.0385398	0.155205	0.159918	119.618	-4.8001	3.22956	0
149	0.0369878	0.150878	0.155345	119.773	-4.8001	3.22956	0
150	0.035479	0.146644	0.150875	119.924	-4.8001	3.22956	0
151	0.0340126	0.142501	0.146504	120.071	-4.8001	3.22956	0
152	0.0325876	0.138448	0.142232	120.213	-4.8001	3.22956	0
153	0.0312031	0.134484	0.138057	120.351	-4.8001	3.22956	0
154	0.0298582	0.130607	0.133977	120.485	-4.8001	3.22956	0
155	0.0285522	0.126816	0.12999	120.615	-4.8001	3.22956	0
156	0.027284	0.123109	0.126096	120.741	-4.8001	3.22956	0
157	0.0260529	0.119486	0.122293	120.863	-4.8001	3.22956	0
158	0.024858	0.115944	0.118579	120.982	-4.8001	3.22956	0
159	0.0236986	0.112483	0.114952	121.097	-4.8001	3.22956	0
160	0.0225738	0.1091	0.111411	121.208	-4.8001	3.22956	0
161	0.0214828	0.105796	0.107955	121.316	-4.8001	3.22956	0
162	0.0204248	0.102567	0.104581	121.421	-4.8001	3.22956	0
163	0.0193991	0.0994144	0.101289	121.522	-4.8001	3.22956	0
164	0.018405	0.0963351	0.0980775	121.62	-4.8001	3.22956	0
165	0.0174417	0.0933284	0.0949442	121.715	-4.8001	3.22956	0
166	0.0165084	0.0903929	0.091888	121.807	-4.8001	3.22956	0
167	0.0156044	0.0875275	0.0889076	121.896	-4.8001	3.22956	0
168	0.0147292	0.0847307	0.0860014	121.982	-4.8001	3.22956	0
169	0.0138819	0.0820015	0.0831682	122.065	-4.8001	3.22956	0
170	0.0130618	0.0793385	0.0804065	122.145	-4.8001	3.22956	0
171	0.0122685	0.0767406	0.0777151	122.223	-4.8001	3.22956	0
172	0.0115011	0.0742065	0.0750925	122.298	-4.8001	3.22956	0
173	0.010759	0.0717351	0.0725374	122.371	-4.8001	3.22956	0
174	0.0100416	0.0693251	0.0700486	122.441	-4.8001	3.22956	0
175	0.00934839	0.0669754	0.0676247	122.508	-4.8001	3.22956	0
176	0.00867863	0.0646849	0.0652645	122.574	-4.8001	3.22956	0
177	0.00803178	0.0624525	0.0629668	122.637	-4.8001	3.22956	0
178	0.00740726	0.0602769	0.0607303	122.697	-4.8001	3.22956	0
179	0.00680449	0.0581571	0.0585538	122.756	-4.8001	3.22956	0
180	0.00622292	0.056092	0.0564362	122.812	-4.8001	3.22956	0
181	0.005662	0.0540805	0.0543761	122.867	-4.8001	3.22956	0
182	0.00512119	0.0521216	0.0523726	122.919	-4.8001	3.22956	0
183	0.00459998	0.0502141	0.0504244	122.97	-4.8001	3.22956	0
184	0.00409784	0.0483571	0.0485304	123.018	-4.8001	3.22956	0
185	0.00361426	0.0465495	0.0466896	123.065	-4.8001	3.22956	0
186	0.00314877	0.0447903	0.0449008	123.11	-4.8001	3.22956	0
187	0.00270087	0.0430785	0.0431631	123.153	-4.8001	3.22956	0
188	0.00227008	0.0414131	0.0414753	123.194	-4.8001	3.22956	0
189	0.00185595	0.0397932	0.0398365	123.234	-4.8001	3.22956	0
190	0.00145802	0.0382178	0.0382456	123.272	-4.8001	3.22956	0
191	0.00107584	0.0366859	0.0367017	123.309	-4.8001	3.22956	0
192	0.000708981	0.0351967	0.0352038	123.344	-4.8001	3.22956	0
193	0.000357015	0.0337491	0.033751	123.378	-4.8001	3.22956	0
194	1.95235e-05	0.0323424	0.0323424	123.41	-4.8001	3.22956	0
195	-0.0003039	0.0309756	0.0309771	123.441	-4.8001	3.22956	0
196	-0.000613656	0.0296478	0.0296542	123.471	-4.8001	3.22956	0
197	-0.000910134	0.0283583	0.0283729	123.499	-4.8001	3.22956	0
198	-0.00119372	0.027106	0.0271323	123.526	-4.8001	3.22956	0
199	-0.00146478	0.0258903	0.0259317	123.552	-4.8001	3.22956	0
200	-0.00172368	0.0247103	0.0247704	123.577	-4.8001	3.22956	0
201	-0.00197078	0.0235652	0.0236475	123.601	-4.8001	3.22956	0
202	-0.00220644	0.0224542	0.0225623	123.623	-4.8001	3.22956	0
203	-0.00243098	0.0213765	0.0215143	123.645	-4.8001	3.22956	0
204	-0.00264474	0.0203314	0.0205027	123.665	-4.8001	3.22956	0
205	-0.00284806	0.0193181	0.0195269	123.685	-4.8001	3.22956	0
206	-0.00304124	0.0183358	0.0185863	123.704	-4.8001	3.22956	0
207	-0.0032246	0.0173839	0.0176804	123.721	-4.8001	3.22956	0
208	-0.00339843	0.0164616	0.0168087	123.738	-4.8001	3.22956	0
209	-0.00356305	0.0155682	0.0159708	123.754	-4.8001	3.22956	0
210	-0.00371873	0.0147031	0.0151661	123.769	-4.8001	3.22956	0
211	-0.00386576	0.0138655	0.0143944	123.784	-4.8001	3.22956	0
212	-0.00400442	0.0130549	0.0136552	123.797	-4.8001	3.22956	0
213	-0.00413497	0.0122705	0.0129484	123.81	-4.8001	3.22956	0
214	-0.00425767	0.0115116	0.0122738	123.822	-4.8001	3.22956	0
215	-0.00437279	0.0107778	0.0116311	123.834	-4.8001	3.22956	0
216	-0.00448057	0.0100683	0.0110203	123.845	-4.8001	3.22956	0
217	-0.00458125	0.0093826	0.0104413	123.856	-4.8001	3.22956	0
218	-0.00467508	0.00872004	0.00989421	123.865	-4.8001	3.22956	0
219	-0.00476228	0.00808007	0.00937906	123.875	-4.8001	3.22956	0
220	-0.00484308	0.0074621	0.00889597	123.884	-4.8001	3.22956	0
221	-0.0049177	0.00686559	0.00844512	123.892	-4.8001	3.22956	0
222	-0.00498635	0.00628997	0.00802667	123.9	-4.8001	3.22956	0
223	-0.00504925	0.00573472	0.00764081	123.908	-4.8001	3.22956	0
224	-0.0051066	0.00519931	0.00728767	123.915	-4.8001	3.22956	0
225	-0.00515859	0.00468321	0.00696732	123.922	-4.8001	3.22956	0
226	-0.00520543	0.00418593	0.00667971	123.929	-4.8001	3.22956	0
227	-0.00524729	0.00370697	0.00642461	123.935	-4.8001	3.22956	0
228	-0.00528436	0.00324583	0.0062016	123.941	-4.8001	3.22956	0
229	-0.00531681	0.00280205	0.00600999	123.947	-4.8001	3.22956	0
230	-0.00534483	0.00237516	0.00584881	123.953	-4.8001	3.22956	0
231	-0.00536859	0.00196469	0.00571679	123.959	-4.8001	3.22956	0
232	-0.00538823	0.00157021	0.00561236	123.965	-4.8001	3.22956	0
233	-0.00540393	0.00119128	0.00553368	123.97	-4.8001	3.22956	0
234	-0.00541585	0.000827457	0.00547869	123.976	-4.8001	3.22956	0
235	-0.00542412	0.000478335	0.00544517	123.981	-4.8001	3.22956	0
236	-0.00542891	0.000143499	0.0054308	123.986	-4.8001	3.22956	0
237	-0.00543034	-0.000177453	0.00543324	123.992	-4.8001	3.22956	0
238	-0.00542857	-0.000484912	0.00545018	123.997	-4.8001	3.22956	0
239	-0.00542372	-0.000779265	0.00547941	124.003	-4.8001	3.22956	0
240	-0.00541592	-0.00106089	0.00551885	124.008	-4.8001	3.22956	0
241	-0.00540531	-0.00133015	0.00556657	124.014	-4.8001	3.22956	0
242	-0.00539201	-0.0015874	0.00562082	124.02	-4.8001	3.22956	0
243	-0.00537614	-0.001833	0.00568003	124.025	-4.8001	3.22956	0
244	-0.00535781	-0.0020673	0.00574281	124.031	-4.8001	3.22956	0
245	-0.00533714	-0.00229062	0.00580792	124.037	-4.8001	3.22956	0
246	-0.00531423	-0.0025033	0.00587431	124.043	-4.8001	3.22956	0
247	-0.0052892	-0.00270565	0.00594106	124.049	-4.8001	3.22956	0
248	-0.00526214	-0.00289799	0.00600737	124.055	-4.8001	3.22956	0
249	-0.00523316	-0.00308063	0.00607258	124.061	-4.8001	3.22956	0
250	-0.00520235	-0.00325386	0.00613613	124.067	-4.8001	3.22956	0
251	-0.00516982	-0.00341798	0.00619755	124.073	-4.8001	3.22956	0
252	-0.00513564	-0.00357327	0.00625644	124.079	-4.8001	3.22956	0
253	-0.0050999	-0.00372001	0.00631249	124.086	-4.8001	3.22956	0
254	-0.0050627	-0.00385847	0.00636543	124.092	-4.8001	3.22956	0
255	-0.00502412	-0.00398892	0.00641508	124.098	-4.8001	3.22956	0
256	-0.00498423	-0.00411161	0.00646126	124.105	-4.8001	3.22956	0
257	-0.00494311	-0.0042268	0.00650386	124.111	-4.8001	3.22956	0
258	-0.00490085	-0.00433473	0.00654279	124.118	-4.8001	3.22956	0
259	-0.0048575	-0.00443564	0.00657801	124.124	-4.8001	3.22956	0
260	-0.00481314	-0.00452978	0.00660948	124.131	-4.8001	3.22956	0
261	-0.00476784	-0.00461736	0.00663719	124.138	-4.8001	3.22956	0
262	-0.00472167	-0.0046986	0.00666116	124.144	-4.8001	3.22956	0
263	-0.00467468	-0.00477374	0.00668141	124.151	-4.8001	3.22956	0
264	-0.00462695	-0.00484296	0.00669798	124.158	-4.8001	3.22956	0
265	-0.00457852	-0.0049065	0.00671093	124.164	-4.8001	3.22956	0
266	-0.00452945	-0.00496453	0.00672031	124.171	-4.8001	3.22956	0
267	-0.00447981	-0.00501727	0.00672619	124.178	-4.8001	3.22956	0
268	-0.00442963	-0.0050649	0.00672866	124.185	-4.8001	3.22956	0
269	-0.00437899	-0.0051076	0.00672778	124.191	-4.8001	3.22956	0
270	-0.00432791	-0.00514556	0.00672366	124.198	-4.8001	3.22956	0
271	-0.00427645	-0.00517895	0.00671636	124.205	-4.8001	3.22956	0
272	-0.00422466	-0.00520794	0.006706	124.211	-4.8001	3.22956	0
273	-0.00417259	-0.0052327	0.00669265	124.218	-4.8001	3.22956	0
274	-0.00412026	-0.0052534	0.00667643	124.225	-4.8001	3.22956	0
275	-0.00406772	-0.00527018	0.00665742	124.231	-4.8001	3.22956	0
276	-0.00401502	-0.00528321	0.00663571	124.238	-4.8001	3.22956	0
277	-0.00396219	-0.00529263	0.00661142	124.245	-4.8001	3.22956	0
278	-0.00390926	-0.00529859	0.00658463	124.251	-4.8001	3.22956	0
279	-0.00385628	-0.00530122	0.00655544	124.258	-4.8001	3.22956	0
280	-0.00380327	-0.00530067	0.00652395	124.264	-4.8001	3.22956	0
281	-0.00375026	-0.00529707	0.00649025	124.271	-4.8001	3.22956	0
282	-0.00369729	-0.00529055	0.00645444	124.277	-4.8001	3.22956	0
283	-0.00364438	-0.00528123	0.00641661	124.284	-4.8001	3.22956	0
284	-0.00359157	-0.00526923	0.00637685	124.29	-4.8001	3.22956	0
285	-0.00353888	-0.00525468	0.00633525	124.296	-4.8001	3.22956	0
286	-0.00348633	-0.00523769	0.00629189	124.303	-4.8001	3.22956	0
287	-0.00343395	-0.00521837	0.00624688	124.309	-4.8001	3.22956	0
288	-0.00338177	-0.00519683	0.00620028	124.315	-4.8001	3.22956	0
289	-0.0033298	-0.00517318	0.00615218	124.321	-4.8001	3.22956	0
290	-0.00327807	-0.00514751	0.00610267	124.327	-4.8001	3.22956	0
291	-0.0032266	-0.00511992	0.00605182	124.334	-4.8001	3.22956	0
292	-0.0031754	-0.00509052	0.00599971	124.34	-4.8001	3.22956	0
293	-0.00312449	-0.00505939	0.00594642	124.345	-4.8001	3.22956	0
294	-0.0030739	-0.00502662	0.00589201	124.351	-4.8001	3.22956	0
295	-0.00302363	-0.00499231	0.00583656	124.357	-4.8001	3.22956	0
296	-0.00297371	-0.00495653	0.00578015	124.363	-4.8001	3.22956	0
297	-0.00292414	-0.00491937	0.00572283	124.369	-4.8001	3.22956	0
298	-0.00287495	-0.00488091	0.00566468	124.374	-4.8001	3.22956	0
299	-0.00282614	-0.00484121	0.00560575	124.38	-4.8001	3.22956	0
300	-0.00277773	-0.00480037	0.00554611	124.386	-4.8001	3.22956	0
301	-0.00272972	-0.00475845	0.00548582	124.391	-4.8001	3.22956	0
302	-0.00268214	-0.00471551	0.00542494	124.396	-4.8001	3.22956	0
303	-0.00263498	-0.00467164	0.00536352	124.402	-4.8001	3.22956	0
304	-0.00258827	-0.00462688	0.00530162	124.407	-4.8001	3.22956	0
305	-0.002542	-0.0045813	0.00523929	124.412	-4.8001	3.22956	0
306	-0.00249619	-0.00453497	0.00517658	124.418	-4.8001	3.22956	0
307	-0.00245084	-0.00448795	0.00511354	124.423	-4.8001	3.22956	0
308	-0.00240596	-0.00444028	0.00505022	124.428	-4.8001	3.22956	0
309	-0.00236155	-0.00439202	0.00498666	124.433	-4.8001	3.22956	0
310	-0.00231763	-0.00434323	0.00492291	124.438	-4.8001	3.22956	0
311	-0.0022742	-0.00429396	0.00485902	124.442	-4.8001	3.22956	0
312	-0.00223126	-0.00424425	0.00479502	124.447	-4.8001	3.22956	0
313	-0.00218882	-0.00419415	0.00473094	124.452	-4.8001	3.22956	0
314	-0.00214688	-0.00414371	0.00466684	124.457	-4.8001	3.22956	0
315	-0.00210544	-0.00409297	0.00460275	124.461	-4.8001	3.22956	0
316	-0.00206451	-0.00404197	0.0045387	124.466	-4.8001	3.22956	0
317	-0.00202409	-0.00399076	0.00447472	124.47	-4.8001	3.22956	0
318	-0.00198418	-0.00393937	0.00441085	124.475	-4.8001	3.22956	0
319	-0.00194479	-0.00388784	0.00434712	124.479	-4.8001	3.22956	0
320	-0.00190591	-0.0038362	0.00428356	124.483	-4.8001	3.22956	0
321	-0.00186755	-0.00378449	0.0042202	124.488	-4.8001	3.22956	0
322	-0.00182971	-0.00373274	0.00415706	124.492	-4.8001	3.22956	0
323	-0.00179238	-0.00368099	0.00409418	124.496	-4.8001	3.22956	0
324	-0.00175557	-0.00362926	0.00403157	124.5	-4.8001	3.22956	0
325	-0.00171928	-0.00357758	0.00396926	124.504	-4.8001	3.22956	0
326	-0.0016835	-0.00352599	0.00390727	124.508	-4.8001	3.22956	0
327	-0.00164824	-0.0034745	0.00384562	124.512	-4.8001	3.22956	0
328	-0.00161349	-0.00342314	0.00378434	124.515	-4.8001	3.22956	0
329	-0.00157926	-0.00337194	0.00372345	124.519	-4.8001	3.22956	0
330	-0.00154554	-0.00332092	0.00366295	124.523	-4.8001	3.22956	0
331	-0.00151233	-0.0032701	0.00360288	124.526	-4.8001	3.22956	0
332	-0.00147963	-0.00321951	0.00354324	124.53	-4.8001	3.22956	0
333	-0.00144744	-0.00316916	0.00348406	124.533	-4.8001	3.22956	0
