
Current theta : [ -4.48822 , 3.10524 ] 


t	x[0]	x[1]	P	theta[0]	theta[1]	theta[2]
0	0.999	0.151777	1.01046	1.01046	-4.48822	3.10524	0
1	0.997482	0.201888	1.01771	2.02817	-4.48822	3.10524	0
2	0.995463	0.250353	1.02646	3.05463	-4.48822	3.10524	0
3	0.99296	0.297189	1.03648	4.09111	-4.48822	3.10524	0
4	0.989988	0.342415	1.04753	5.13865	-4.48822	3.10524	0
5	0.986564	0.386047	1.05941	6.19805	-4.48822	3.10524	0
6	0.982703	0.428101	1.0719	7.26995	-4.48822	3.10524	0
7	0.978422	0.468593	1.08485	8.3548	-4.48822	3.10524	0
8	0.973736	0.50754	1.09807	9.45287	-4.48822	3.10524	0
9	0.968661	0.544958	1.11143	10.5643	-4.48822	3.10524	0
10	0.963211	0.580862	1.1248	11.6891	-4.48822	3.10524	0
11	0.957403	0.615268	1.13806	12.8272	-4.48822	3.10524	0
12	0.95125	0.648194	1.1511	13.9783	-4.48822	3.10524	0
13	0.944768	0.679656	1.16384	15.1421	-4.48822	3.10524	0
14	0.937972	0.709672	1.17619	16.3183	-4.48822	3.10524	0
15	0.930875	0.73826	1.18809	17.5064	-4.48822	3.10524	0
16	0.923492	0.765438	1.19947	18.7059	-4.48822	3.10524	0
17	0.915838	0.791226	1.21029	19.9161	-4.48822	3.10524	0
18	0.907926	0.815644	1.22049	21.1366	-4.48822	3.10524	0
19	0.899769	0.838713	1.23005	22.3667	-4.48822	3.10524	0
20	0.891382	0.860453	1.23893	23.6056	-4.48822	3.10524	0
21	0.882778	0.880887	1.2471	24.8527	-4.48822	3.10524	0
22	0.873969	0.900038	1.25455	26.1073	-4.48822	3.10524	0
23	0.864968	0.917929	1.26125	27.3685	-4.48822	3.10524	0
24	0.855789	0.934585	1.26721	28.6357	-4.48822	3.10524	0
25	0.846443	0.95003	1.27241	29.9081	-4.48822	3.10524	0
26	0.836943	0.964291	1.27684	31.185	-4.48822	3.10524	0
27	0.8273	0.977392	1.28052	32.4655	-4.48822	3.10524	0
28	0.817526	0.989361	1.28343	33.7489	-4.48822	3.10524	0
29	0.807632	1.00023	1.28558	35.0345	-4.48822	3.10524	0
30	0.79763	1.01001	1.28699	36.3215	-4.48822	3.10524	0
31	0.78753	1.01875	1.28766	37.6091	-4.48822	3.10524	0
32	0.777343	1.02647	1.28759	38.8967	-4.48822	3.10524	0
33	0.767078	1.03319	1.28682	40.1836	-4.48822	3.10524	0
34	0.756746	1.03896	1.28534	41.4689	-4.48822	3.10524	0
35	0.746356	1.04379	1.28318	42.7521	-4.48822	3.10524	0
36	0.735918	1.04771	1.28034	44.0324	-4.48822	3.10524	0
37	0.725441	1.05077	1.27686	45.3093	-4.48822	3.10524	0
38	0.714934	1.05297	1.27275	46.582	-4.48822	3.10524	0
39	0.704404	1.05436	1.26802	47.85	-4.48822	3.10524	0
40	0.69386	1.05497	1.2627	49.1127	-4.48822	3.10524	0
41	0.683311	1.05482	1.25681	50.3695	-4.48822	3.10524	0
42	0.672762	1.05395	1.25036	51.6199	-4.48822	3.10524	0
43	0.662223	1.05237	1.24339	52.8633	-4.48822	3.10524	0
44	0.651699	1.05013	1.23591	54.0992	-4.48822	3.10524	0
45	0.641198	1.04724	1.22795	55.3272	-4.48822	3.10524	0
46	0.630725	1.04375	1.21952	56.5467	-4.48822	3.10524	0
47	0.620288	1.03967	1.21065	57.7573	-4.48822	3.10524	0
48	0.609891	1.03503	1.20136	58.9587	-4.48822	3.10524	0
49	0.599541	1.02986	1.19166	60.1503	-4.48822	3.10524	0
50	0.589242	1.02419	1.1816	61.3319	-4.48822	3.10524	0
51	0.579	1.01804	1.17117	62.5031	-4.48822	3.10524	0
52	0.56882	1.01144	1.16041	63.6635	-4.48822	3.10524	0
53	0.558706	1.0044	1.14934	64.8129	-4.48822	3.10524	0
54	0.548662	0.996969	1.13797	65.9508	-4.48822	3.10524	0
55	0.538692	0.989154	1.12633	67.0772	-4.48822	3.10524	0
56	0.5288	0.980982	1.11443	68.1916	-4.48822	3.10524	0
57	0.518991	0.972475	1.1023	69.2939	-4.48822	3.10524	0
58	0.509266	0.963656	1.08995	70.3838	-4.48822	3.10524	0
59	0.499629	0.954544	1.0774	71.4612	-4.48822	3.10524	0
60	0.490084	0.945161	1.06467	72.5259	-4.48822	3.10524	0
61	0.480632	0.935527	1.05177	73.5777	-4.48822	3.10524	0
62	0.471277	0.925661	1.03873	74.6164	-4.48822	3.10524	0
63	0.46202	0.915581	1.02555	75.6419	-4.48822	3.10524	0
64	0.452865	0.905305	1.01226	76.6542	-4.48822	3.10524	0
65	0.443812	0.894851	0.998863	77.6531	-4.48822	3.10524	0
66	0.434863	0.884235	0.985382	78.6384	-4.48822	3.10524	0
67	0.426021	0.873474	0.971828	79.6103	-4.48822	3.10524	0
68	0.417286	0.862582	0.958214	80.5685	-4.48822	3.10524	0
69	0.40866	0.851574	0.944554	81.513	-4.48822	3.10524	0
70	0.400144	0.840465	0.930858	82.4439	-4.48822	3.10524	0
71	0.39174	0.829269	0.91714	83.361	-4.48822	3.10524	0
72	0.383447	0.817997	0.903411	84.2645	-4.48822	3.10524	0
73	0.375267	0.806664	0.889681	85.1541	-4.48822	3.10524	0
74	0.3672	0.79528	0.87596	86.0301	-4.48822	3.10524	0
75	0.359248	0.783857	0.862259	86.8924	-4.48822	3.10524	0
76	0.351409	0.772405	0.848586	87.7409	-4.48822	3.10524	0
77	0.343685	0.760936	0.834951	88.5759	-4.48822	3.10524	0
78	0.336076	0.749459	0.821362	89.3973	-4.48822	3.10524	0
79	0.328581	0.737983	0.807827	90.2051	-4.48822	3.10524	0
80	0.321201	0.726517	0.794353	90.9994	-4.48822	3.10524	0
81	0.313936	0.715069	0.780948	91.7804	-4.48822	3.10524	0
82	0.306785	0.703648	0.767619	92.548	-4.48822	3.10524	0
83	0.299749	0.692261	0.754371	93.3024	-4.48822	3.10524	0
84	0.292826	0.680915	0.74121	94.0436	-4.48822	3.10524	0
85	0.286017	0.669617	0.728143	94.7717	-4.48822	3.10524	0
86	0.279321	0.658372	0.715174	95.4869	-4.48822	3.10524	0
87	0.272737	0.647188	0.702309	96.1892	-4.48822	3.10524	0
88	0.266265	0.636069	0.689551	96.8788	-4.48822	3.10524	0
89	0.259905	0.625021	0.676906	97.5557	-4.48822	3.10524	0
90	0.253654	0.614049	0.664377	98.22	-4.48822	3.10524	0
91	0.247514	0.603157	0.651967	98.872	-4.48822	3.10524	0
92	0.241482	0.592349	0.639681	99.5117	-4.48822	3.10524	0
93	0.235559	0.581631	0.627521	100.139	-4.48822	3.10524	0
94	0.229743	0.571004	0.615489	100.755	-4.48822	3.10524	0
95	0.224033	0.560473	0.60359	101.358	-4.48822	3.10524	0
96	0.218428	0.550041	0.591824	101.95	-4.48822	3.10524	0
97	0.212927	0.539711	0.580195	102.53	-4.48822	3.10524	0
98	0.20753	0.529485	0.568703	103.099	-4.48822	3.10524	0
99	0.202235	0.519366	0.557351	103.656	-4.48822	3.10524	0
100	0.197042	0.509356	0.54614	104.203	-4.48822	3.10524	0
101	0.191948	0.499458	0.535072	104.738	-4.48822	3.10524	0
102	0.186954	0.489672	0.524148	105.262	-4.48822	3.10524	0
103	0.182057	0.480002	0.513368	105.775	-4.48822	3.10524	0
104	0.177257	0.470447	0.502733	106.278	-4.48822	3.10524	0
105	0.172552	0.46101	0.492245	106.77	-4.48822	3.10524	0
106	0.167942	0.451692	0.481903	107.252	-4.48822	3.10524	0
107	0.163425	0.442494	0.471708	107.724	-4.48822	3.10524	0
108	0.159	0.433415	0.46166	108.185	-4.48822	3.10524	0
109	0.154666	0.424459	0.45176	108.637	-4.48822	3.10524	0
110	0.150422	0.415623	0.442006	109.079	-4.48822	3.10524	0
111	0.146266	0.406911	0.4324	109.512	-4.48822	3.10524	0
112	0.142196	0.39832	0.422941	109.934	-4.48822	3.10524	0
113	0.138213	0.389853	0.413628	110.348	-4.48822	3.10524	0
114	0.134315	0.381508	0.404462	110.753	-4.48822	3.10524	0
115	0.1305	0.373287	0.395441	111.148	-4.48822	3.10524	0
116	0.126767	0.365188	0.386565	111.535	-4.48822	3.10524	0
117	0.123115	0.357212	0.377833	111.912	-4.48822	3.10524	0
118	0.119543	0.349359	0.369245	112.282	-4.48822	3.10524	0
119	0.116049	0.341628	0.3608	112.642	-4.48822	3.10524	0
120	0.112633	0.334018	0.352497	112.995	-4.48822	3.10524	0
121	0.109293	0.32653	0.344335	113.339	-4.48822	3.10524	0
122	0.106027	0.319162	0.336313	113.676	-4.48822	3.10524	0
123	0.102836	0.311915	0.328429	114.004	-4.48822	3.10524	0
124	0.0997166	0.304787	0.320684	114.325	-4.48822	3.10524	0
125	0.0966687	0.297777	0.313075	114.638	-4.48822	3.10524	0
126	0.093691	0.290886	0.305602	114.943	-4.48822	3.10524	0
127	0.0907821	0.284112	0.298263	115.242	-4.48822	3.10524	0
128	0.087941	0.277454	0.291057	115.533	-4.48822	3.10524	0
129	0.0851664	0.270912	0.283983	115.817	-4.48822	3.10524	0
130	0.0824573	0.264484	0.27704	116.094	-4.48822	3.10524	0
131	0.0798125	0.25817	0.270225	116.364	-4.48822	3.10524	0
132	0.0772308	0.251968	0.263538	116.627	-4.48822	3.10524	0
133	0.0747111	0.245878	0.256978	116.884	-4.48822	3.10524	0
134	0.0722523	0.239898	0.250542	117.135	-4.48822	3.10524	0
135	0.0698534	0.234027	0.24423	117.379	-4.48822	3.10524	0
136	0.0675131	0.228265	0.23804	117.617	-4.48822	3.10524	0
137	0.0652304	0.22261	0.23197	117.849	-4.48822	3.10524	0
138	0.0630043	0.217061	0.22602	118.075	-4.48822	3.10524	0
139	0.0608337	0.211616	0.220187	118.295	-4.48822	3.10524	0
140	0.0587176	0.206275	0.21447	118.51	-4.48822	3.10524	0
141	0.0566548	0.201037	0.208868	118.719	-4.48822	3.10524	0
142	0.0546444	0.1959	0.203378	118.922	-4.48822	3.10524	0
143	0.0526854	0.190862	0.198001	119.12	-4.48822	3.10524	0
144	0.0507768	0.185924	0.192733	119.313	-4.48822	3.10524	0
145	0.0489176	0.181083	0.187574	119.5	-4.48822	3.10524	0
146	0.0471067	0.176338	0.182522	119.683	-4.48822	3.10524	0
147	0.0453434	0.171688	0.177575	119.861	-4.48822	3.10524	0
148	0.0436265	0.167132	0.172732	120.033	-4.48822	3.10524	0
149	0.0419552	0.162668	0.167992	120.201	-4.48822	3.10524	0
150	0.0403285	0.158296	0.163352	120.365	-4.48822	3.10524	0
151	0.0387455	0.154013	0.158812	120.523	-4.48822	3.10524	0
152	0.0372054	0.149819	0.15437	120.678	-4.48822	3.10524	0
153	0.0357072	0.145713	0.150024	120.828	-4.48822	3.10524	0
154	0.0342501	0.141693	0.145773	120.974	-4.48822	3.10524	0
155	0.0328331	0.137757	0.141616	121.115	-4.48822	3.10524	0
156	0.0314556	0.133905	0.13755	121.253	-4.48822	3.10524	0
157	0.0301165	0.130136	0.133575	121.386	-4.48822	3.10524	0
158	0.0288152	0.126448	0.129689	121.516	-4.48822	3.10524	0
159	0.0275507	0.122839	0.125891	121.642	-4.48822	3.10524	0
160	0.0263223	0.119309	0.122178	121.764	-4.48822	3.10524	0
161	0.0251292	0.115857	0.118551	121.883	-4.48822	3.10524	0
162	0.0239706	0.11248	0.115006	121.998	-4.48822	3.10524	0
163	0.0228458	0.109179	0.111544	122.109	-4.48822	3.10524	0
164	0.021754	0.105951	0.108162	122.217	-4.48822	3.10524	0
165	0.0206945	0.102796	0.104859	122.322	-4.48822	3.10524	0
166	0.0196666	0.0997124	0.101633	122.424	-4.48822	3.10524	0
167	0.0186694	0.0966987	0.0984844	122.522	-4.48822	3.10524	0
168	0.0177025	0.0937539	0.0954105	122.618	-4.48822	3.10524	0
169	0.0167649	0.0908769	0.0924104	122.71	-4.48822	3.10524	0
170	0.0158561	0.0880665	0.0894826	122.8	-4.48822	3.10524	0
171	0.0149755	0.0853216	0.0866259	122.886	-4.48822	3.10524	0
172	0.0141223	0.0826411	0.083839	122.97	-4.48822	3.10524	0
173	0.0132959	0.0800237	0.0811207	123.051	-4.48822	3.10524	0
174	0.0124956	0.0774684	0.0784697	123.13	-4.48822	3.10524	0
175	0.0117209	0.074974	0.0758847	123.206	-4.48822	3.10524	0
176	0.0109712	0.0725395	0.0733645	123.279	-4.48822	3.10524	0
177	0.0102458	0.0701638	0.0709079	123.35	-4.48822	3.10524	0
178	0.00954416	0.0678458	0.0685138	123.418	-4.48822	3.10524	0
179	0.0088657	0.0655844	0.0661809	123.485	-4.48822	3.10524	0
180	0.00820986	0.0633786	0.0639082	123.548	-4.48822	3.10524	0
181	0.00757607	0.0612274	0.0616944	123.61	-4.48822	3.10524	0
182	0.0069638	0.0591297	0.0595384	123.67	-4.48822	3.10524	0
183	0.0063725	0.0570845	0.0574391	123.727	-4.48822	3.10524	0
184	0.00580165	0.0550908	0.0553955	123.783	-4.48822	3.10524	0
185	0.00525075	0.0531476	0.0534064	123.836	-4.48822	3.10524	0
186	0.00471927	0.051254	0.0514708	123.887	-4.48822	3.10524	0
187	0.00420673	0.0494089	0.0495876	123.937	-4.48822	3.10524	0
188	0.00371264	0.0476114	0.047756	123.985	-4.48822	3.10524	0
189	0.00323653	0.0458606	0.0459747	124.031	-4.48822	3.10524	0
190	0.00277792	0.0441556	0.0442429	124.075	-4.48822	3.10524	0
191	0.00233637	0.0424953	0.0425595	124.118	-4.48822	3.10524	0
192	0.00191141	0.040879	0.0409237	124.158	-4.48822	3.10524	0
193	0.00150262	0.0393057	0.0393345	124.198	-4.48822	3.10524	0
194	0.00110956	0.0377746	0.0377909	124.236	-4.48822	3.10524	0
195	0.000731819	0.0362848	0.0362922	124.272	-4.48822	3.10524	0
196	0.000368971	0.0348354	0.0348373	124.307	-4.48822	3.10524	0
197	2.06175e-05	0.0334255	0.0334255	124.34	-4.48822	3.10524	0
198	-0.000313638	0.0320545	0.032056	124.372	-4.48822	3.10524	0
199	-0.000634182	0.0307213	0.0307279	124.403	-4.48822	3.10524	0
200	-0.000941396	0.0294253	0.0294404	124.432	-4.48822	3.10524	0
201	-0.00123565	0.0281657	0.0281928	124.461	-4.48822	3.10524	0
202	-0.00151731	0.0269416	0.0269843	124.488	-4.48822	3.10524	0
203	-0.00178672	0.0257523	0.0258142	124.513	-4.48822	3.10524	0
204	-0.00204425	0.0245971	0.0246819	124.538	-4.48822	3.10524	0
205	-0.00229022	0.0234751	0.0235866	124.562	-4.48822	3.10524	0
206	-0.00252497	0.0223857	0.0225277	124.584	-4.48822	3.10524	0
207	-0.00274882	0.0213281	0.0215046	124.606	-4.48822	3.10524	0
208	-0.00296211	0.0203017	0.0205167	124.626	-4.48822	3.10524	0
209	-0.00316512	0.0193057	0.0195635	124.646	-4.48822	3.10524	0
210	-0.00335818	0.0183395	0.0186444	124.664	-4.48822	3.10524	0
211	-0.00354158	0.0174023	0.017759	124.682	-4.48822	3.10524	0
212	-0.0037156	0.0164935	0.0169068	124.699	-4.48822	3.10524	0
213	-0.00388053	0.0156125	0.0160875	124.715	-4.48822	3.10524	0
214	-0.00403666	0.0147586	0.0153007	124.73	-4.48822	3.10524	0
215	-0.00418424	0.0139312	0.014546	124.745	-4.48822	3.10524	0
216	-0.00432356	0.0131296	0.0138232	124.759	-4.48822	3.10524	0
217	-0.00445485	0.0123533	0.0131321	124.772	-4.48822	3.10524	0
218	-0.00457839	0.0116017	0.0124724	124.784	-4.48822	3.10524	0
219	-0.0046944	0.0108742	0.0118442	124.796	-4.48822	3.10524	0
220	-0.00480314	0.0101701	0.0112473	124.807	-4.48822	3.10524	0
221	-0.00490485	0.00948901	0.0106817	124.818	-4.48822	3.10524	0
222	-0.00499974	0.00883028	0.0101475	124.828	-4.48822	3.10524	0
223	-0.00508804	0.00819338	0.00964467	124.838	-4.48822	3.10524	0
224	-0.00516997	0.00757778	0.0091734	124.847	-4.48822	3.10524	0
225	-0.00524575	0.00698296	0.00873382	124.856	-4.48822	3.10524	0
226	-0.00531558	0.00640839	0.00832604	124.864	-4.48822	3.10524	0
227	-0.00537966	0.00585358	0.00795017	124.872	-4.48822	3.10524	0
228	-0.0054382	0.00531803	0.00760628	124.88	-4.48822	3.10524	0
229	-0.00549138	0.00480126	0.00729433	124.887	-4.48822	3.10524	0
230	-0.00553939	0.00430278	0.00701418	124.894	-4.48822	3.10524	0
231	-0.00558242	0.00382212	0.0067655	124.901	-4.48822	3.10524	0
232	-0.00562064	0.00335884	0.00654778	124.907	-4.48822	3.10524	0
233	-0.00565423	0.00291248	0.00636026	124.914	-4.48822	3.10524	0
234	-0.00568335	0.0024826	0.00620192	124.92	-4.48822	3.10524	0
235	-0.00570818	0.00206877	0.0060715	124.926	-4.48822	3.10524	0
236	-0.00572887	0.00167057	0.00596747	124.932	-4.48822	3.10524	0
237	-0.00574557	0.00128757	0.00588808	124.938	-4.48822	3.10524	0
238	-0.00575845	0.000919385	0.00583138	124.944	-4.48822	3.10524	0
239	-0.00576764	0.000565606	0.00579531	124.949	-4.48822	3.10524	0
240	-0.0057733	0.000225845	0.00577771	124.955	-4.48822	3.10524	0
241	-0.00577556	-0.000100277	0.00577643	124.961	-4.48822	3.10524	0
242	-0.00577455	-0.000413136	0.00578931	124.967	-4.48822	3.10524	0
243	-0.00577042	-0.000713096	0.00581432	124.973	-4.48822	3.10524	0
244	-0.00576329	-0.00100052	0.00584949	124.978	-4.48822	3.10524	0
245	-0.00575329	-0.00127574	0.00589303	124.984	-4.48822	3.10524	0
246	-0.00574053	-0.00153913	0.00594328	124.99	-4.48822	3.10524	0
247	-0.00572514	-0.00179099	0.00599874	124.996	-4.48822	3.10524	0
248	-0.00570723	-0.00203168	0.00605807	125.002	-4.48822	3.10524	0
249	-0.00568691	-0.0022615	0.00612008	125.009	-4.48822	3.10524	0
250	-0.0056643	-0.00248077	0.00618373	125.015	-4.48822	3.10524	0
251	-0.00563949	-0.0026898	0.00624811	125.021	-4.48822	3.10524	0
252	-0.00561259	-0.00288888	0.00631243	125.027	-4.48822	3.10524	0
253	-0.0055837	-0.00307832	0.00637603	125.034	-4.48822	3.10524	0
254	-0.00555292	-0.0032584	0.00643833	125.04	-4.48822	3.10524	0
255	-0.00552034	-0.00342939	0.00649883	125.047	-4.48822	3.10524	0
256	-0.00548604	-0.00359157	0.00655714	125.053	-4.48822	3.10524	0
257	-0.00545013	-0.00374522	0.00661291	125.06	-4.48822	3.10524	0
258	-0.00541267	-0.00389058	0.00666586	125.066	-4.48822	3.10524	0
259	-0.00537377	-0.00402793	0.00671577	125.073	-4.48822	3.10524	0
260	-0.00533349	-0.00415749	0.00676246	125.08	-4.48822	3.10524	0
261	-0.00529191	-0.00427953	0.00680579	125.087	-4.48822	3.10524	0
262	-0.00524912	-0.00439428	0.00684565	125.094	-4.48822	3.10524	0
263	-0.00520518	-0.00450197	0.00688198	125.1	-4.48822	3.10524	0
264	-0.00516016	-0.00460283	0.00691471	125.107	-4.48822	3.10524	0
265	-0.00511413	-0.00469707	0.00694383	125.114	-4.48822	3.10524	0
266	-0.00506716	-0.00478492	0.00696933	125.121	-4.48822	3.10524	0
267	-0.00501931	-0.00486659	0.00699122	125.128	-4.48822	3.10524	0
268	-0.00497064	-0.00494227	0.00700952	125.135	-4.48822	3.10524	0
269	-0.00492122	-0.00501218	0.00702427	125.142	-4.48822	3.10524	0
270	-0.0048711	-0.00507651	0.00703552	125.149	-4.48822	3.10524	0
271	-0.00482033	-0.00513544	0.00704332	125.156	-4.48822	3.10524	0
272	-0.00476898	-0.00518917	0.00704774	125.163	-4.48822	3.10524	0
273	-0.00471709	-0.00523788	0.00704885	125.17	-4.48822	3.10524	0
274	-0.00466471	-0.00528173	0.00704672	125.177	-4.48822	3.10524	0
275	-0.00461189	-0.00532092	0.00704143	125.185	-4.48822	3.10524	0
276	-0.00455868	-0.00535559	0.00703306	125.192	-4.48822	3.10524	0
277	-0.00450512	-0.00538592	0.0070217	125.199	-4.48822	3.10524	0
278	-0.00445127	-0.00541207	0.00700744	125.206	-4.48822	3.10524	0
279	-0.00439714	-0.00543419	0.00699037	125.213	-4.48822	3.10524	0
280	-0.0043428	-0.00545243	0.00697057	125.22	-4.48822	3.10524	0
281	-0.00428828	-0.00546694	0.00694815	125.227	-4.48822	3.10524	0
282	-0.00423361	-0.00547786	0.00692318	125.233	-4.48822	3.10524	0
283	-0.00417883	-0.00548533	0.00689576	125.24	-4.48822	3.10524	0
284	-0.00412398	-0.00548949	0.00686598	125.247	-4.48822	3.10524	0
285	-0.00406908	-0.00549046	0.00683393	125.254	-4.48822	3.10524	0
286	-0.00401418	-0.00548839	0.00679971	125.261	-4.48822	3.10524	0
287	-0.00395929	-0.00548338	0.00676339	125.268	-4.48822	3.10524	0
288	-0.00390446	-0.00547557	0.00672508	125.274	-4.48822	3.10524	0
289	-0.0038497	-0.00546507	0.00668485	125.281	-4.48822	3.10524	0
290	-0.00379505	-0.005452	0.0066428	125.288	-4.48822	3.10524	0
291	-0.00374053	-0.00543646	0.006599	125.294	-4.48822	3.10524	0
292	-0.00368617	-0.00541857	0.00655353	125.301	-4.48822	3.10524	0
293	-0.00363198	-0.00539843	0.00650649	125.307	-4.48822	3.10524	0
294	-0.003578	-0.00537615	0.00645794	125.314	-4.48822	3.10524	0
295	-0.00352424	-0.00535181	0.00640798	125.32	-4.48822	3.10524	0
296	-0.00347072	-0.00532553	0.00635666	125.327	-4.48822	3.10524	0
297	-0.00341746	-0.00529738	0.00630407	125.333	-4.48822	3.10524	0
298	-0.00336449	-0.00526747	0.00625028	125.339	-4.48822	3.10524	0
299	-0.00331182	-0.00523588	0.00619537	125.345	-4.48822	3.10524	0
300	-0.00325946	-0.00520269	0.00613939	125.351	-4.48822	3.10524	0
301	-0.00320743	-0.005168	0.00608242	125.357	-4.48822	3.10524	0
302	-0.00315575	-0.00513187	0.00602452	125.364	-4.48822	3.10524	0
303	-0.00310443	-0.00509439	0.00596576	125.369	-4.48822	3.10524	0
304	-0.00305349	-0.00505563	0.0059062	125.375	-4.48822	3.10524	0
305	-0.00300293	-0.00501567	0.0058459	125.381	-4.48822	3.10524	0
306	-0.00295277	-0.00497457	0.00578491	125.387	-4.48822	3.10524	0
307	-0.00290303	-0.00493241	0.0057233	125.393	-4.48822	3.10524	0
308	-0.0028537	-0.00488925	0.00566113	125.398	-4.48822	3.10524	0
309	-0.00280481	-0.00484515	0.00559843	125.404	-4.48822	3.10524	0
310	-0.00275636	-0.00480018	0.00553527	125.41	-4.48822	3.10524	0
311	-0.00270836	-0.00475439	0.0054717	125.415	-4.48822	3.10524	0
312	-0.00266081	-0.00470786	0.00540776	125.42	-4.48822	3.10524	0
313	-0.00261374	-0.00466062	0.0053435	125.426	-4.48822	3.10524	0
314	-0.00256713	-0.00461274	0.00527897	125.431	-4.48822	3.10524	0
315	-0.002521	-0.00456426	0.00521421	125.436	-4.48822	3.10524	0
316	-0.00247536	-0.00451525	0.00514926	125.441	-4.48822	3.10524	0
317	-0.00243021	-0.00446574	0.00508416	125.446	-4.48822	3.10524	0
318	-0.00238555	-0.00441578	0.00501896	125.452	-4.48822	3.10524	0
319	-0.00234139	-0.00436543	0.0049537	125.456	-4.48822	3.10524	0
320	-0.00229774	-0.00431472	0.0048884	125.461	-4.48822	3.10524	0
321	-0.00225459	-0.0042637	0.0048231	125.466	-4.48822	3.10524	0
322	-0.00221195	-0.0042124	0.00475784	125.471	-4.48822	3.10524	0
323	-0.00216983	-0.00416087	0.00469265	125.476	-4.48822	3.10524	0
324	-0.00212822	-0.00410914	0.00462756	125.48	-4.48822	3.10524	0
325	-0.00208713	-0.00405725	0.00456261	125.485	-4.48822	3.10524	0
326	-0.00204656	-0.00400524	0.00449781	125.489	-4.48822	3.10524	0
327	-0.0020065	-0.00395313	0.0044332	125.494	-4.48822	3.10524	0
328	-0.00196697	-0.00390097	0.00436881	125.498	-4.48822	3.10524	0
329	-0.00192796	-0.00384877	0.00430466	125.502	-4.48822	3.10524	0
