
Current theta : [ -3.34319 , 2.61754 ] 


t	x[0]	x[1]	P	theta[0]	theta[1]	theta[2]
0	0.999	0.140814	1.00888	1.00888	-3.34319	2.61754	0
1	0.997592	0.180514	1.01379	2.02267	-3.34319	2.61754	0
2	0.995787	0.219108	1.01961	3.04228	-3.34319	2.61754	0
3	0.993596	0.256603	1.0262	4.06847	-3.34319	2.61754	0
4	0.99103	0.293007	1.03344	5.10191	-3.34319	2.61754	0
5	0.9881	0.328327	1.04122	6.14313	-3.34319	2.61754	0
6	0.984816	0.362571	1.04944	7.19257	-3.34319	2.61754	0
7	0.981191	0.395743	1.05799	8.25056	-3.34319	2.61754	0
8	0.977233	0.427852	1.06679	9.31735	-3.34319	2.61754	0
9	0.972955	0.458903	1.07575	10.3931	-3.34319	2.61754	0
10	0.968366	0.488904	1.08479	11.4779	-3.34319	2.61754	0
11	0.963477	0.51786	1.09383	12.5717	-3.34319	2.61754	0
12	0.958298	0.545779	1.10282	13.6745	-3.34319	2.61754	0
13	0.95284	0.572668	1.11169	14.7862	-3.34319	2.61754	0
14	0.947113	0.598535	1.12039	15.9066	-3.34319	2.61754	0
15	0.941128	0.623386	1.12886	17.0355	-3.34319	2.61754	0
16	0.934894	0.647231	1.13707	18.1725	-3.34319	2.61754	0
17	0.928422	0.670079	1.14498	19.3175	-3.34319	2.61754	0
18	0.921721	0.691937	1.15254	20.4701	-3.34319	2.61754	0
19	0.914802	0.712817	1.15973	21.6298	-3.34319	2.61754	0
20	0.907674	0.732727	1.16652	22.7963	-3.34319	2.61754	0
21	0.900346	0.751679	1.17288	23.9692	-3.34319	2.61754	0
22	0.89283	0.769684	1.1788	25.148	-3.34319	2.61754	0
23	0.885133	0.786753	1.18425	26.3322	-3.34319	2.61754	0
24	0.877265	0.802899	1.18922	27.5214	-3.34319	2.61754	0
25	0.869236	0.818134	1.1937	28.7151	-3.34319	2.61754	0
26	0.861055	0.832472	1.19767	29.9128	-3.34319	2.61754	0
27	0.85273	0.845926	1.20114	31.114	-3.34319	2.61754	0
28	0.844271	0.858511	1.20409	32.3181	-3.34319	2.61754	0
29	0.835686	0.870242	1.20652	33.5246	-3.34319	2.61754	0
30	0.826983	0.881134	1.20843	34.733	-3.34319	2.61754	0
31	0.818172	0.891202	1.20981	35.9428	-3.34319	2.61754	0
32	0.80926	0.900463	1.21068	37.1535	-3.34319	2.61754	0
33	0.800255	0.908933	1.21102	38.3645	-3.34319	2.61754	0
34	0.791166	0.916629	1.21085	39.5754	-3.34319	2.61754	0
35	0.782	0.923569	1.21017	40.7855	-3.34319	2.61754	0
36	0.772764	0.929771	1.20898	41.9945	-3.34319	2.61754	0
37	0.763466	0.935251	1.2073	43.2018	-3.34319	2.61754	0
38	0.754114	0.940028	1.20513	44.4069	-3.34319	2.61754	0
39	0.744714	0.94412	1.20248	45.6094	-3.34319	2.61754	0
40	0.735272	0.947547	1.19936	46.8088	-3.34319	2.61754	0
41	0.725797	0.950326	1.19578	48.0046	-3.34319	2.61754	0
42	0.716294	0.952476	1.19176	49.1963	-3.34319	2.61754	0
43	0.706769	0.954017	1.1873	50.3836	-3.34319	2.61754	0
44	0.697229	0.954967	1.18241	51.566	-3.34319	2.61754	0
45	0.687679	0.955345	1.17711	52.7431	-3.34319	2.61754	0
46	0.678126	0.95517	1.17141	53.9145	-3.34319	2.61754	0
47	0.668574	0.954461	1.16533	55.0799	-3.34319	2.61754	0
48	0.659029	0.953237	1.15887	56.2387	-3.34319	2.61754	0
49	0.649497	0.951516	1.15205	57.3908	-3.34319	2.61754	0
50	0.639982	0.949317	1.14489	58.5357	-3.34319	2.61754	0
51	0.630489	0.946659	1.1374	59.6731	-3.34319	2.61754	0
52	0.621022	0.94356	1.12959	60.8027	-3.34319	2.61754	0
53	0.611586	0.940037	1.12148	61.9242	-3.34319	2.61754	0
54	0.602186	0.93611	1.11307	63.0372	-3.34319	2.61754	0
55	0.592825	0.931794	1.10439	64.1416	-3.34319	2.61754	0
56	0.583507	0.927108	1.09545	65.2371	-3.34319	2.61754	0
57	0.574236	0.922069	1.08626	66.3233	-3.34319	2.61754	0
58	0.565015	0.916694	1.07683	67.4002	-3.34319	2.61754	0
59	0.555848	0.910998	1.06719	68.4673	-3.34319	2.61754	0
60	0.546738	0.904999	1.05733	69.5247	-3.34319	2.61754	0
61	0.537688	0.898711	1.04728	70.572	-3.34319	2.61754	0
62	0.528701	0.892151	1.03704	71.609	-3.34319	2.61754	0
63	0.51978	0.885333	1.02664	72.6356	-3.34319	2.61754	0
64	0.510926	0.878273	1.01608	73.6517	-3.34319	2.61754	0
65	0.502144	0.870984	1.00537	74.6571	-3.34319	2.61754	0
66	0.493434	0.863481	0.994523	75.6516	-3.34319	2.61754	0
67	0.484799	0.855778	0.983558	76.6352	-3.34319	2.61754	0
68	0.476241	0.847887	0.97248	77.6076	-3.34319	2.61754	0
69	0.467762	0.839821	0.961302	78.5689	-3.34319	2.61754	0
70	0.459364	0.831594	0.950033	79.519	-3.34319	2.61754	0
71	0.451048	0.823216	0.938685	80.4577	-3.34319	2.61754	0
72	0.442816	0.814701	0.927267	81.3849	-3.34319	2.61754	0
73	0.434669	0.806059	0.915788	82.3007	-3.34319	2.61754	0
74	0.426608	0.797301	0.904258	83.205	-3.34319	2.61754	0
75	0.418635	0.788437	0.892686	84.0977	-3.34319	2.61754	0
76	0.410751	0.779479	0.881081	84.9787	-3.34319	2.61754	0
77	0.402956	0.770436	0.869451	85.8482	-3.34319	2.61754	0
78	0.395252	0.761317	0.857804	86.706	-3.34319	2.61754	0
79	0.387639	0.752132	0.846148	87.5521	-3.34319	2.61754	0
80	0.380117	0.74289	0.83449	88.3866	-3.34319	2.61754	0
81	0.372688	0.733598	0.822838	89.2095	-3.34319	2.61754	0
82	0.365352	0.724265	0.811198	90.0207	-3.34319	2.61754	0
83	0.35811	0.714899	0.799577	90.8202	-3.34319	2.61754	0
84	0.350961	0.705508	0.787982	91.6082	-3.34319	2.61754	0
85	0.343906	0.696098	0.776417	92.3846	-3.34319	2.61754	0
86	0.336945	0.686676	0.764889	93.1495	-3.34319	2.61754	0
87	0.330078	0.677249	0.753404	93.9029	-3.34319	2.61754	0
88	0.323305	0.667823	0.741966	94.6449	-3.34319	2.61754	0
89	0.316627	0.658404	0.730581	95.3755	-3.34319	2.61754	0
90	0.310043	0.648998	0.719253	96.0947	-3.34319	2.61754	0
91	0.303553	0.63961	0.707987	96.8027	-3.34319	2.61754	0
92	0.297157	0.630245	0.696786	97.4995	-3.34319	2.61754	0
93	0.290855	0.620908	0.685655	98.1852	-3.34319	2.61754	0
94	0.284646	0.611604	0.674598	98.8598	-3.34319	2.61754	0
95	0.27853	0.602337	0.663618	99.5234	-3.34319	2.61754	0
96	0.272506	0.593112	0.652718	100.176	-3.34319	2.61754	0
97	0.266575	0.583932	0.641902	100.818	-3.34319	2.61754	0
98	0.260736	0.574801	0.631173	101.449	-3.34319	2.61754	0
99	0.254988	0.565722	0.620532	102.07	-3.34319	2.61754	0
100	0.249331	0.556699	0.609983	102.68	-3.34319	2.61754	0
101	0.243764	0.547735	0.599529	103.279	-3.34319	2.61754	0
102	0.238286	0.538833	0.58917	103.868	-3.34319	2.61754	0
103	0.232898	0.529996	0.57891	104.447	-3.34319	2.61754	0
104	0.227598	0.521226	0.568751	105.016	-3.34319	2.61754	0
105	0.222386	0.512525	0.558693	105.575	-3.34319	2.61754	0
106	0.21726	0.503897	0.548739	106.123	-3.34319	2.61754	0
107	0.212221	0.495342	0.538889	106.662	-3.34319	2.61754	0
108	0.207268	0.486863	0.529146	107.192	-3.34319	2.61754	0
109	0.202399	0.478462	0.519511	107.711	-3.34319	2.61754	0
110	0.197615	0.47014	0.509983	108.221	-3.34319	2.61754	0
111	0.192913	0.461899	0.500566	108.722	-3.34319	2.61754	0
112	0.188294	0.45374	0.491258	109.213	-3.34319	2.61754	0
113	0.183757	0.445665	0.482062	109.695	-3.34319	2.61754	0
114	0.1793	0.437674	0.472977	110.168	-3.34319	2.61754	0
115	0.174924	0.429769	0.464004	110.632	-3.34319	2.61754	0
116	0.170626	0.421951	0.455143	111.087	-3.34319	2.61754	0
117	0.166406	0.41422	0.446396	111.533	-3.34319	2.61754	0
118	0.162264	0.406577	0.437761	111.971	-3.34319	2.61754	0
119	0.158198	0.399024	0.42924	112.4	-3.34319	2.61754	0
120	0.154208	0.39156	0.420831	112.821	-3.34319	2.61754	0
121	0.150293	0.384185	0.412536	113.234	-3.34319	2.61754	0
122	0.146451	0.376902	0.404355	113.638	-3.34319	2.61754	0
123	0.142682	0.369709	0.396286	114.034	-3.34319	2.61754	0
124	0.138985	0.362606	0.38833	114.423	-3.34319	2.61754	0
125	0.135359	0.355595	0.380487	114.803	-3.34319	2.61754	0
126	0.131803	0.348676	0.372755	115.176	-3.34319	2.61754	0
127	0.128316	0.341847	0.365136	115.541	-3.34319	2.61754	0
128	0.124897	0.33511	0.357628	115.899	-3.34319	2.61754	0
129	0.121546	0.328464	0.350232	116.249	-3.34319	2.61754	0
130	0.118262	0.321909	0.342945	116.592	-3.34319	2.61754	0
131	0.115043	0.315445	0.335769	116.928	-3.34319	2.61754	0
132	0.111888	0.309072	0.328701	117.256	-3.34319	2.61754	0
133	0.108797	0.30279	0.321743	117.578	-3.34319	2.61754	0
134	0.105769	0.296597	0.314892	117.893	-3.34319	2.61754	0
135	0.102803	0.290495	0.308149	118.201	-3.34319	2.61754	0
136	0.0998986	0.284482	0.301512	118.503	-3.34319	2.61754	0
137	0.0970537	0.278558	0.294981	118.798	-3.34319	2.61754	0
138	0.0942682	0.272722	0.288555	119.086	-3.34319	2.61754	0
139	0.0915409	0.266975	0.282233	119.368	-3.34319	2.61754	0
140	0.0888712	0.261315	0.276014	119.644	-3.34319	2.61754	0
141	0.086258	0.255742	0.269897	119.914	-3.34319	2.61754	0
142	0.0837006	0.250256	0.263882	120.178	-3.34319	2.61754	0
143	0.0811981	0.244856	0.257968	120.436	-3.34319	2.61754	0
144	0.0787495	0.239541	0.252153	120.688	-3.34319	2.61754	0
145	0.0763541	0.23431	0.246437	120.935	-3.34319	2.61754	0
146	0.074011	0.229164	0.240819	121.176	-3.34319	2.61754	0
147	0.0717193	0.224101	0.235297	121.411	-3.34319	2.61754	0
148	0.0694783	0.21912	0.229872	121.641	-3.34319	2.61754	0
149	0.0672871	0.214222	0.224541	121.865	-3.34319	2.61754	0
150	0.0651449	0.209404	0.219304	122.085	-3.34319	2.61754	0
151	0.0630509	0.204667	0.214159	122.299	-3.34319	2.61754	0
152	0.0610042	0.20001	0.209106	122.508	-3.34319	2.61754	0
153	0.0590041	0.195432	0.204144	122.712	-3.34319	2.61754	0
154	0.0570498	0.190931	0.199272	122.911	-3.34319	2.61754	0
155	0.0551405	0.186508	0.194488	123.106	-3.34319	2.61754	0
156	0.0532754	0.182162	0.189792	123.296	-3.34319	2.61754	0
157	0.0514538	0.177891	0.185183	123.481	-3.34319	2.61754	0
158	0.0496749	0.173695	0.180659	123.661	-3.34319	2.61754	0
159	0.0479379	0.169573	0.176219	123.838	-3.34319	2.61754	0
160	0.0462422	0.165525	0.171863	124.01	-3.34319	2.61754	0
161	0.0445869	0.161549	0.167589	124.177	-3.34319	2.61754	0
162	0.0429714	0.157645	0.163396	124.341	-3.34319	2.61754	0
163	0.041395	0.153811	0.159284	124.5	-3.34319	2.61754	0
164	0.0398569	0.150047	0.155251	124.655	-3.34319	2.61754	0
165	0.0383564	0.146353	0.151295	124.806	-3.34319	2.61754	0
166	0.0368929	0.142726	0.147417	124.954	-3.34319	2.61754	0
167	0.0354656	0.139167	0.143615	125.097	-3.34319	2.61754	0
168	0.0340739	0.135675	0.139888	125.237	-3.34319	2.61754	0
169	0.0327172	0.132248	0.136235	125.374	-3.34319	2.61754	0
170	0.0313947	0.128887	0.132655	125.506	-3.34319	2.61754	0
171	0.0301058	0.125589	0.129147	125.635	-3.34319	2.61754	0
172	0.0288499	0.122354	0.12571	125.761	-3.34319	2.61754	0
173	0.0276264	0.119182	0.122342	125.883	-3.34319	2.61754	0
174	0.0264346	0.116072	0.119044	126.002	-3.34319	2.61754	0
175	0.0252739	0.113022	0.115813	126.118	-3.34319	2.61754	0
176	0.0241436	0.110031	0.112649	126.231	-3.34319	2.61754	0
177	0.0230433	0.1071	0.109551	126.34	-3.34319	2.61754	0
178	0.0219723	0.104227	0.106518	126.447	-3.34319	2.61754	0
179	0.0209301	0.101412	0.103549	126.55	-3.34319	2.61754	0
180	0.0199159	0.0986524	0.100643	126.651	-3.34319	2.61754	0
181	0.0189294	0.095949	0.0977985	126.749	-3.34319	2.61754	0
182	0.0179699	0.0933005	0.0950153	126.844	-3.34319	2.61754	0
183	0.0170369	0.0907061	0.0922922	126.936	-3.34319	2.61754	0
184	0.0161299	0.088165	0.0896283	127.026	-3.34319	2.61754	0
185	0.0152482	0.0856764	0.0870227	127.113	-3.34319	2.61754	0
186	0.0143915	0.0832394	0.0844744	127.197	-3.34319	2.61754	0
187	0.0135591	0.0808535	0.0819825	127.279	-3.34319	2.61754	0
188	0.0127505	0.0785176	0.0795461	127.359	-3.34319	2.61754	0
189	0.0119653	0.0762311	0.0771644	127.436	-3.34319	2.61754	0
190	0.011203	0.0739932	0.0748365	127.511	-3.34319	2.61754	0
191	0.0104631	0.0718031	0.0725615	127.583	-3.34319	2.61754	0
192	0.00974507	0.0696601	0.0703385	127.654	-3.34319	2.61754	0
193	0.00904847	0.0675635	0.0681667	127.722	-3.34319	2.61754	0
194	0.00837284	0.0655124	0.0660453	127.788	-3.34319	2.61754	0
195	0.00771771	0.0635061	0.0639734	127.852	-3.34319	2.61754	0
196	0.00708265	0.061544	0.0619502	127.914	-3.34319	2.61754	0
197	0.00646721	0.0596253	0.059975	127.974	-3.34319	2.61754	0
198	0.00587096	0.0577492	0.0580469	128.032	-3.34319	2.61754	0
199	0.00529347	0.0559151	0.0561651	128.088	-3.34319	2.61754	0
200	0.00473431	0.0541223	0.054329	128.142	-3.34319	2.61754	0
201	0.00419309	0.05237	0.0525376	128.195	-3.34319	2.61754	0
202	0.00366939	0.0506577	0.0507904	128.246	-3.34319	2.61754	0
203	0.00316281	0.0489845	0.0490865	128.295	-3.34319	2.61754	0
204	0.00267297	0.0473498	0.0474252	128.342	-3.34319	2.61754	0
205	0.00219947	0.045753	0.0458058	128.388	-3.34319	2.61754	0
206	0.00174194	0.0441934	0.0442277	128.432	-3.34319	2.61754	0
207	0.00130001	0.0426704	0.0426901	128.475	-3.34319	2.61754	0
208	0.000873304	0.0411832	0.0411925	128.516	-3.34319	2.61754	0
209	0.000461472	0.0397313	0.039734	128.556	-3.34319	2.61754	0
210	6.41586e-05	0.0383141	0.0383141	128.594	-3.34319	2.61754	0
211	-0.000318982	0.0369308	0.0369322	128.631	-3.34319	2.61754	0
212	-0.00068829	0.035581	0.0355876	128.667	-3.34319	2.61754	0
213	-0.0010441	0.0342639	0.0342798	128.701	-3.34319	2.61754	0
214	-0.00138674	0.0329791	0.0330082	128.734	-3.34319	2.61754	0
215	-0.00171653	0.0317258	0.0317722	128.766	-3.34319	2.61754	0
216	-0.00203379	0.0305036	0.0305713	128.796	-3.34319	2.61754	0
217	-0.00233882	0.0293118	0.0294049	128.826	-3.34319	2.61754	0
218	-0.00263194	0.0281498	0.0282726	128.854	-3.34319	2.61754	0
219	-0.00291344	0.0270172	0.0271738	128.881	-3.34319	2.61754	0
220	-0.00318361	0.0259133	0.0261081	128.907	-3.34319	2.61754	0
221	-0.00344274	0.0248376	0.0250751	128.932	-3.34319	2.61754	0
222	-0.00369112	0.0237896	0.0240742	128.957	-3.34319	2.61754	0
223	-0.00392902	0.0227687	0.0231052	128.98	-3.34319	2.61754	0
224	-0.0041567	0.0217744	0.0221676	129.002	-3.34319	2.61754	0
225	-0.00437445	0.0208061	0.021261	129.023	-3.34319	2.61754	0
226	-0.00458251	0.0198635	0.0203852	129.043	-3.34319	2.61754	0
227	-0.00478114	0.0189459	0.0195399	129.063	-3.34319	2.61754	0
228	-0.0049706	0.0180529	0.0187247	129.082	-3.34319	2.61754	0
229	-0.00515113	0.0171839	0.0179394	129.1	-3.34319	2.61754	0
230	-0.00532297	0.0163386	0.0171838	129.117	-3.34319	2.61754	0
231	-0.00548636	0.0155163	0.0164577	129.133	-3.34319	2.61754	0
232	-0.00564152	0.0147167	0.015761	129.149	-3.34319	2.61754	0
233	-0.00578869	0.0139393	0.0150935	129.164	-3.34319	2.61754	0
234	-0.00592808	0.0131837	0.0144551	129.179	-3.34319	2.61754	0
235	-0.00605992	0.0124493	0.0138458	129.192	-3.34319	2.61754	0
236	-0.00618441	0.0117357	0.0132655	129.206	-3.34319	2.61754	0
237	-0.00630177	0.0110426	0.0127142	129.218	-3.34319	2.61754	0
238	-0.00641219	0.0103694	0.0121919	129.231	-3.34319	2.61754	0
239	-0.00651589	0.00971583	0.0116985	129.242	-3.34319	2.61754	0
240	-0.00661304	0.00908136	0.011234	129.254	-3.34319	2.61754	0
241	-0.00670386	0.00846563	0.0107985	129.264	-3.34319	2.61754	0
242	-0.00678851	0.00786822	0.010392	129.275	-3.34319	2.61754	0
243	-0.0068672	0.00728875	0.0100142	129.285	-3.34319	2.61754	0
244	-0.00694008	0.00672683	0.00966514	129.294	-3.34319	2.61754	0
245	-0.00700735	0.00618206	0.00934457	129.304	-3.34319	2.61754	0
246	-0.00706917	0.00565409	0.00905218	129.313	-3.34319	2.61754	0
247	-0.00712571	0.00514252	0.00878757	129.322	-3.34319	2.61754	0
248	-0.00717714	0.00464701	0.00855021	129.33	-3.34319	2.61754	0
249	-0.00722361	0.00416719	0.00833942	129.338	-3.34319	2.61754	0
250	-0.00726528	0.00370271	0.00815441	129.347	-3.34319	2.61754	0
251	-0.00730231	0.00325322	0.00799419	129.355	-3.34319	2.61754	0
252	-0.00733484	0.00281838	0.00785768	129.362	-3.34319	2.61754	0
253	-0.00736302	0.00239786	0.00774363	129.37	-3.34319	2.61754	0
254	-0.007387	0.00199133	0.0076507	129.378	-3.34319	2.61754	0
255	-0.00740692	0.00159846	0.00757743	129.385	-3.34319	2.61754	0
256	-0.0074229	0.00121894	0.00752232	129.393	-3.34319	2.61754	0
257	-0.00743509	0.000852455	0.0074838	129.4	-3.34319	2.61754	0
258	-0.00744362	0.000498698	0.0074603	129.408	-3.34319	2.61754	0
259	-0.0074486	0.000157367	0.00745026	129.415	-3.34319	2.61754	0
260	-0.00745018	-0.000171832	0.00745216	129.423	-3.34319	2.61754	0
261	-0.00744846	-0.000489191	0.0074645	129.43	-3.34319	2.61754	0
262	-0.00744357	-0.000794995	0.0074859	129.438	-3.34319	2.61754	0
263	-0.00743562	-0.00108952	0.00751501	129.445	-3.34319	2.61754	0
264	-0.00742472	-0.00137305	0.00755061	129.453	-3.34319	2.61754	0
265	-0.00741099	-0.00164585	0.00759155	129.46	-3.34319	2.61754	0
266	-0.00739453	-0.00190819	0.00763677	129.468	-3.34319	2.61754	0
267	-0.00737545	-0.00216032	0.00768533	129.476	-3.34319	2.61754	0
268	-0.00735385	-0.0024025	0.00773635	129.483	-3.34319	2.61754	0
269	-0.00732982	-0.00263498	0.00778906	129.491	-3.34319	2.61754	0
270	-0.00730347	-0.00285801	0.00784276	129.499	-3.34319	2.61754	0
271	-0.00727489	-0.00307182	0.00789684	129.507	-3.34319	2.61754	0
272	-0.00724417	-0.00327666	0.00795076	129.515	-3.34319	2.61754	0
273	-0.00721141	-0.00347276	0.00800403	129.523	-3.34319	2.61754	0
274	-0.00717668	-0.00366034	0.00805623	129.531	-3.34319	2.61754	0
275	-0.00714008	-0.00383962	0.00810699	129.539	-3.34319	2.61754	0
276	-0.00710168	-0.00401083	0.00815602	129.547	-3.34319	2.61754	0
277	-0.00706157	-0.00417418	0.00820302	129.556	-3.34319	2.61754	0
278	-0.00701983	-0.00432987	0.00824778	129.564	-3.34319	2.61754	0
279	-0.00697653	-0.00447813	0.00829009	129.572	-3.34319	2.61754	0
280	-0.00693175	-0.00461913	0.0083298	129.58	-3.34319	2.61754	0
281	-0.00688556	-0.0047531	0.00836677	129.589	-3.34319	2.61754	0
282	-0.00683803	-0.00488021	0.00840089	129.597	-3.34319	2.61754	0
283	-0.00678922	-0.00500065	0.00843209	129.606	-3.34319	2.61754	0
284	-0.00673922	-0.00511462	0.00846029	129.614	-3.34319	2.61754	0
285	-0.00668807	-0.0052223	0.00848544	129.623	-3.34319	2.61754	0
286	-0.00663585	-0.00532386	0.00850752	129.631	-3.34319	2.61754	0
287	-0.00658261	-0.00541948	0.00852652	129.64	-3.34319	2.61754	0
288	-0.00652842	-0.00550932	0.00854241	129.648	-3.34319	2.61754	0
289	-0.00647332	-0.00559356	0.00855522	129.657	-3.34319	2.61754	0
290	-0.00641739	-0.00567236	0.00856496	129.665	-3.34319	2.61754	0
291	-0.00636066	-0.00574589	0.00857165	129.674	-3.34319	2.61754	0
292	-0.0063032	-0.00581428	0.00857533	129.682	-3.34319	2.61754	0
293	-0.00624506	-0.00587771	0.00857603	129.691	-3.34319	2.61754	0
294	-0.00618628	-0.00593632	0.0085738	129.7	-3.34319	2.61754	0
295	-0.00612692	-0.00599026	0.00856868	129.708	-3.34319	2.61754	0
296	-0.00606702	-0.00603966	0.00856074	129.717	-3.34319	2.61754	0
297	-0.00600662	-0.00608468	0.00855002	129.725	-3.34319	2.61754	0
298	-0.00594578	-0.00612545	0.00853659	129.734	-3.34319	2.61754	0
299	-0.00588452	-0.00616209	0.0085205	129.742	-3.34319	2.61754	0
300	-0.0058229	-0.00619476	0.00850183	129.751	-3.34319	2.61754	0
301	-0.00576095	-0.00622356	0.00848064	129.759	-3.34319	2.61754	0
302	-0.00569872	-0.00624863	0.00845699	129.768	-3.34319	2.61754	0
303	-0.00563623	-0.00627009	0.00843096	129.776	-3.34319	2.61754	0
304	-0.00557353	-0.00628806	0.00840262	129.785	-3.34319	2.61754	0
305	-0.00551065	-0.00630266	0.00837202	129.793	-3.34319	2.61754	0
306	-0.00544762	-0.006314	0.00833926	129.801	-3.34319	2.61754	0
307	-0.00538448	-0.00632219	0.00830438	129.81	-3.34319	2.61754	0
308	-0.00532126	-0.00632734	0.00826747	129.818	-3.34319	2.61754	0
309	-0.00525799	-0.00632956	0.0082286	129.826	-3.34319	2.61754	0
310	-0.00519469	-0.00632895	0.00818783	129.834	-3.34319	2.61754	0
311	-0.0051314	-0.00632562	0.00814523	129.842	-3.34319	2.61754	0
312	-0.00506815	-0.00631966	0.00810087	129.85	-3.34319	2.61754	0
313	-0.00500495	-0.00631116	0.00805483	129.859	-3.34319	2.61754	0
314	-0.00494184	-0.00630023	0.00800716	129.867	-3.34319	2.61754	0
315	-0.00487884	-0.00628695	0.00795794	129.874	-3.34319	2.61754	0
316	-0.00481597	-0.00627142	0.00790722	129.882	-3.34319	2.61754	0
317	-0.00475325	-0.00625371	0.00785508	129.89	-3.34319	2.61754	0
318	-0.00469071	-0.00623393	0.00780158	129.898	-3.34319	2.61754	0
319	-0.00462838	-0.00621214	0.00774678	129.906	-3.34319	2.61754	0
320	-0.00456625	-0.00618843	0.00769073	129.913	-3.34319	2.61754	0
321	-0.00450437	-0.00616289	0.00763351	129.921	-3.34319	2.61754	0
322	-0.00444274	-0.00613558	0.00757517	129.929	-3.34319	2.61754	0
323	-0.00438138	-0.00610658	0.00751577	129.936	-3.34319	2.61754	0
324	-0.00432032	-0.00607596	0.00745537	129.944	-3.34319	2.61754	0
325	-0.00425956	-0.0060438	0.00739401	129.951	-3.34319	2.61754	0
326	-0.00419912	-0.00601017	0.00733176	129.958	-3.34319	2.61754	0
327	-0.00413902	-0.00597512	0.00726867	129.966	-3.34319	2.61754	0
328	-0.00407927	-0.00593874	0.00720479	129.973	-3.34319	2.61754	0
329	-0.00401988	-0.00590107	0.00714018	129.98	-3.34319	2.61754	0
330	-0.00396087	-0.00586219	0.00707487	129.987	-3.34319	2.61754	0
