Something 


t	x[0]	x[1]	P	theta[0]	theta[1]	theta[2]
0	0.099	0.099	0.140007	0.140007	0	1
1	0.09801	0.09801	0.138607	0.278614	0	1
2	0.0970299	0.0970299	0.137221	0.415835	0	1
3	0.0960596	0.0960596	0.135849	0.551684	0	1
4	0.095099	0.095099	0.13449	0.686174	0	1
5	0.094148	0.094148	0.133145	0.81932	0	1
6	0.0932065	0.0932065	0.131814	0.951134	0	1
7	0.0922745	0.0922745	0.130496	1.08163	0	1
8	0.0913517	0.0913517	0.129191	1.21082	0	1
9	0.0904382	0.0904382	0.127899	1.33872	0	1
10	0.0895338	0.0895338	0.12662	1.46534	0	1
11	0.0886385	0.0886385	0.125354	1.59069	0	1
12	0.0877521	0.0877521	0.1241	1.71479	0	1
13	0.0868746	0.0868746	0.122859	1.83765	0	1
14	0.0860058	0.0860058	0.121631	1.95928	0	1
15	0.0851458	0.0851458	0.120414	2.0797	0	1
16	0.0842943	0.0842943	0.11921	2.19891	0	1
17	0.0834514	0.0834514	0.118018	2.31693	0	1
18	0.0826169	0.0826169	0.116838	2.43376	0	1
19	0.0817907	0.0817907	0.11567	2.54943	0	1
20	0.0809728	0.0809728	0.114513	2.66395	0	1
21	0.0801631	0.0801631	0.113368	2.77731	0	1
22	0.0793614	0.0793614	0.112234	2.88955	0	1
23	0.0785678	0.0785678	0.111112	3.00066	0	1
24	0.0777821	0.0777821	0.110001	3.11066	0	1
25	0.0770043	0.0770043	0.108901	3.21956	0	1
26	0.0762343	0.0762343	0.107812	3.32737	0	1
27	0.0754719	0.0754719	0.106733	3.43411	0	1
28	0.0747172	0.0747172	0.105666	3.53977	0	1
29	0.07397	0.07397	0.104609	3.64438	0	1
30	0.0732303	0.0732303	0.103563	3.74794	0	1
31	0.072498	0.072498	0.102528	3.85047	0	1
32	0.0717731	0.0717731	0.101502	3.95197	0	1
33	0.0710553	0.0710553	0.100487	4.05246	0	1
34	0.0703448	0.0703448	0.0994825	4.15194	0	1
35	0.0696413	0.0696413	0.0984877	4.25043	0	1
36	0.0689449	0.0689449	0.0975028	4.34793	0	1
37	0.0682555	0.0682555	0.0965278	4.44446	0	1
38	0.0675729	0.0675729	0.0955625	4.54002	0	1
39	0.0668972	0.0668972	0.0946069	4.63463	0	1
40	0.0662282	0.0662282	0.0936608	4.72829	0	1
41	0.0655659	0.0655659	0.0927242	4.82102	0	1
42	0.0649103	0.0649103	0.091797	4.91281	0	1
43	0.0642612	0.0642612	0.090879	5.00369	0	1
44	0.0636185	0.0636185	0.0899702	5.09366	0	1
45	0.0629824	0.0629824	0.0890705	5.18273	0	1
46	0.0623525	0.0623525	0.0881798	5.27091	0	1
47	0.061729	0.061729	0.087298	5.35821	0	1
48	0.0611117	0.0611117	0.086425	5.44464	0	1
49	0.0605006	0.0605006	0.0855608	5.5302	0	1
50	0.0598956	0.0598956	0.0847052	5.6149	0	1
51	0.0592966	0.0592966	0.0838581	5.69876	0	1
52	0.0587037	0.0587037	0.0830195	5.78178	0	1
53	0.0581166	0.0581166	0.0821893	5.86397	0	1
54	0.0575355	0.0575355	0.0813674	5.94534	0	1
55	0.0569601	0.0569601	0.0805538	6.02589	0	1
56	0.0563905	0.0563905	0.0797482	6.10564	0	1
57	0.0558266	0.0558266	0.0789508	6.18459	0	1
58	0.0552683	0.0552683	0.0781612	6.26275	0	1
59	0.0547157	0.0547157	0.0773796	6.34013	0	1
60	0.0541685	0.0541685	0.0766058	6.41674	0	1
61	0.0536268	0.0536268	0.0758398	6.49258	0	1
62	0.0530906	0.0530906	0.0750814	6.56766	0	1
63	0.0525596	0.0525596	0.0743306	6.64199	0	1
64	0.0520341	0.0520341	0.0735873	6.71558	0	1
65	0.0515137	0.0515137	0.0728514	6.78843	0	1
66	0.0509986	0.0509986	0.0721229	6.86055	0	1
67	0.0504886	0.0504886	0.0714016	6.93195	0	1
68	0.0499837	0.0499837	0.0706876	7.00264	0	1
69	0.0494839	0.0494839	0.0699808	7.07262	0	1
70	0.048989	0.048989	0.0692809	7.1419	0	1
71	0.0484991	0.0484991	0.0685881	7.21049	0	1
72	0.0480141	0.0480141	0.0679023	7.27839	0	1
73	0.047534	0.047534	0.0672232	7.34561	0	1
74	0.0470587	0.0470587	0.066551	7.41217	0	1
75	0.0465881	0.0465881	0.0658855	7.47805	0	1
76	0.0461222	0.0461222	0.0652266	7.54328	0	1
77	0.045661	0.045661	0.0645744	7.60785	0	1
78	0.0452044	0.0452044	0.0639286	7.67178	0	1
79	0.0447523	0.0447523	0.0632893	7.73507	0	1
80	0.0443048	0.0443048	0.0626564	7.79773	0	1
81	0.0438618	0.0438618	0.0620299	7.85976	0	1
82	0.0434231	0.0434231	0.0614096	7.92117	0	1
83	0.0429889	0.0429889	0.0607955	7.98196	0	1
84	0.042559	0.042559	0.0601875	8.04215	0	1
85	0.0421334	0.0421334	0.0595857	8.10173	0	1
86	0.0417121	0.0417121	0.0589898	8.16072	0	1
87	0.041295	0.041295	0.0583999	8.21912	0	1
88	0.040882	0.040882	0.0578159	8.27694	0	1
89	0.0404732	0.0404732	0.0572377	8.33418	0	1
90	0.0400685	0.0400685	0.0566654	8.39084	0	1
91	0.0396678	0.0396678	0.0560987	8.44694	0	1
92	0.0392711	0.0392711	0.0555377	8.50248	0	1
93	0.0388784	0.0388784	0.0549823	8.55746	0	1
94	0.0384896	0.0384896	0.0544325	8.61189	0	1
95	0.0381047	0.0381047	0.0538882	8.66578	0	1
96	0.0377237	0.0377237	0.0533493	8.71913	0	1
97	0.0373464	0.0373464	0.0528158	8.77195	0	1
98	0.036973	0.036973	0.0522877	8.82424	0	1
99	0.0366032	0.0366032	0.0517648	8.876	0	1
100	0.0362372	0.0362372	0.0512471	8.92725	0	1
101	0.0358748	0.0358748	0.0507347	8.97798	0	1
102	0.0355161	0.0355161	0.0502273	9.02821	0	1
103	0.0351609	0.0351609	0.0497251	9.07793	0	1
104	0.0348093	0.0348093	0.0492278	9.12716	0	1
105	0.0344612	0.0344612	0.0487355	9.1759	0	1
106	0.0341166	0.0341166	0.0482482	9.22415	0	1
107	0.0337754	0.0337754	0.0477657	9.27191	0	1
108	0.0334377	0.0334377	0.047288	9.3192	0	1
109	0.0331033	0.0331033	0.0468151	9.36601	0	1
110	0.0327723	0.0327723	0.046347	9.41236	0	1
111	0.0324446	0.0324446	0.0458835	9.45825	0	1
112	0.0321201	0.0321201	0.0454247	9.50367	0	1
113	0.0317989	0.0317989	0.0449704	9.54864	0	1
114	0.0314809	0.0314809	0.0445207	9.59316	0	1
115	0.0311661	0.0311661	0.0440755	9.63724	0	1
116	0.0308544	0.0308544	0.0436348	9.68087	0	1
117	0.0305459	0.0305459	0.0431984	9.72407	0	1
118	0.0302404	0.0302404	0.0427664	9.76684	0	1
119	0.029938	0.029938	0.0423388	9.80917	0	1
120	0.0296387	0.0296387	0.0419154	9.85109	0	1
121	0.0293423	0.0293423	0.0414962	9.89259	0	1
122	0.0290488	0.0290488	0.0410813	9.93367	0	1
123	0.0287584	0.0287584	0.0406705	9.97434	0	1
124	0.0284708	0.0284708	0.0402638	10.0146	0	1
125	0.0281861	0.0281861	0.0398611	10.0545	0	1
126	0.0279042	0.0279042	0.0394625	10.0939	0	1
127	0.0276252	0.0276252	0.0390679	10.133	0	1
128	0.0273489	0.0273489	0.0386772	10.1717	0	1
129	0.0270754	0.0270754	0.0382904	10.21	0	1
130	0.0268047	0.0268047	0.0379075	10.2479	0	1
131	0.0265366	0.0265366	0.0375285	10.2854	0	1
132	0.0262713	0.0262713	0.0371532	10.3226	0	1
133	0.0260085	0.0260085	0.0367816	10.3593	0	1
134	0.0257485	0.0257485	0.0364138	10.3957	0	1
135	0.025491	0.025491	0.0360497	10.4318	0	1
136	0.0252361	0.0252361	0.0356892	10.4675	0	1
137	0.0249837	0.0249837	0.0353323	10.5028	0	1
138	0.0247339	0.0247339	0.034979	10.5378	0	1
139	0.0244865	0.0244865	0.0346292	10.5724	0	1
140	0.0242417	0.0242417	0.0342829	10.6067	0	1
141	0.0239992	0.0239992	0.0339401	10.6406	0	1
142	0.0237593	0.0237593	0.0336007	10.6742	0	1
143	0.0235217	0.0235217	0.0332647	10.7075	0	1
144	0.0232864	0.0232864	0.032932	10.7404	0	1
145	0.0230536	0.0230536	0.0326027	10.773	0	1
146	0.022823	0.022823	0.0322767	10.8053	0	1
147	0.0225948	0.0225948	0.0319539	10.8373	0	1
148	0.0223689	0.0223689	0.0316344	10.8689	0	1
149	0.0221452	0.0221452	0.031318	10.9002	0	1
150	0.0219237	0.0219237	0.0310048	10.9312	0	1
151	0.0217045	0.0217045	0.0306948	10.9619	0	1
152	0.0214874	0.0214874	0.0303878	10.9923	0	1
153	0.0212726	0.0212726	0.030084	11.0224	0	1
154	0.0210598	0.0210598	0.0297831	11.0522	0	1
155	0.0208492	0.0208492	0.0294853	11.0817	0	1
156	0.0206408	0.0206408	0.0291904	11.1109	0	1
157	0.0204343	0.0204343	0.0288985	11.1398	0	1
158	0.02023	0.02023	0.0286095	11.1684	0	1
159	0.0200277	0.0200277	0.0283234	11.1967	0	1
160	0.0198274	0.0198274	0.0280402	11.2247	0	1
161	0.0196292	0.0196292	0.0277598	11.2525	0	1
162	0.0194329	0.0194329	0.0274822	11.28	0	1
163	0.0192385	0.0192385	0.0272074	11.3072	0	1
164	0.0190461	0.0190461	0.0269353	11.3341	0	1
165	0.0188557	0.0188557	0.026666	11.3608	0	1
166	0.0186671	0.0186671	0.0263993	11.3872	0	1
167	0.0184805	0.0184805	0.0261353	11.4133	0	1
168	0.0182957	0.0182957	0.025874	11.4392	0	1
169	0.0181127	0.0181127	0.0256152	11.4648	0	1
170	0.0179316	0.0179316	0.0253591	11.4902	0	1
171	0.0177523	0.0177523	0.0251055	11.5153	0	1
172	0.0175747	0.0175747	0.0248544	11.5401	0	1
173	0.017399	0.017399	0.0246059	11.5647	0	1
174	0.017225	0.017225	0.0243598	11.5891	0	1
175	0.0170527	0.0170527	0.0241162	11.6132	0	1
176	0.0168822	0.0168822	0.0238751	11.6371	0	1
177	0.0167134	0.0167134	0.0236363	11.6607	0	1
178	0.0165463	0.0165463	0.0233999	11.6841	0	1
179	0.0163808	0.0163808	0.0231659	11.7073	0	1
180	0.016217	0.016217	0.0229343	11.7302	0	1
181	0.0160548	0.0160548	0.0227049	11.7529	0	1
182	0.0158943	0.0158943	0.0224779	11.7754	0	1
183	0.0157353	0.0157353	0.0222531	11.7977	0	1
184	0.015578	0.015578	0.0220306	11.8197	0	1
185	0.0154222	0.0154222	0.0218103	11.8415	0	1
186	0.015268	0.015268	0.0215922	11.8631	0	1
187	0.0151153	0.0151153	0.0213763	11.8845	0	1
188	0.0149641	0.0149641	0.0211625	11.9056	0	1
189	0.0148145	0.0148145	0.0209509	11.9266	0	1
190	0.0146664	0.0146664	0.0207414	11.9473	0	1
191	0.0145197	0.0145197	0.0205339	11.9679	0	1
192	0.0143745	0.0143745	0.0203286	11.9882	0	1
193	0.0142307	0.0142307	0.0201253	12.0083	0	1
194	0.0140884	0.0140884	0.0199241	12.0282	0	1
195	0.0139476	0.0139476	0.0197248	12.048	0	1
196	0.0138081	0.0138081	0.0195276	12.0675	0	1
197	0.01367	0.01367	0.0193323	12.0868	0	1
198	0.0135333	0.0135333	0.019139	12.106	0	1
199	0.013398	0.013398	0.0189476	12.1249	0	1
200	0.013264	0.013264	0.0187581	12.1437	0	1
201	0.0131313	0.0131313	0.0185705	12.1622	0	1
202	0.013	0.013	0.0183848	12.1806	0	1
203	0.01287	0.01287	0.018201	12.1988	0	1
204	0.0127413	0.0127413	0.018019	12.2168	0	1
205	0.0126139	0.0126139	0.0178388	12.2347	0	1
206	0.0124878	0.0124878	0.0176604	12.2523	0	1
207	0.0123629	0.0123629	0.0174838	12.2698	0	1
208	0.0122393	0.0122393	0.0173089	12.2871	0	1
209	0.0121169	0.0121169	0.0171359	12.3043	0	1
210	0.0119957	0.0119957	0.0169645	12.3212	0	1
211	0.0118758	0.0118758	0.0167949	12.338	0	1
212	0.011757	0.011757	0.0166269	12.3547	0	1
213	0.0116394	0.0116394	0.0164606	12.3711	0	1
214	0.011523	0.011523	0.016296	12.3874	0	1
215	0.0114078	0.0114078	0.0161331	12.4035	0	1
216	0.0112937	0.0112937	0.0159717	12.4195	0	1
217	0.0111808	0.0111808	0.015812	12.4353	0	1
218	0.011069	0.011069	0.0156539	12.451	0	1
219	0.0109583	0.0109583	0.0154974	12.4665	0	1
220	0.0108487	0.0108487	0.0153424	12.4818	0	1
221	0.0107402	0.0107402	0.015189	12.497	0	1
222	0.0106328	0.0106328	0.0150371	12.512	0	1
223	0.0105265	0.0105265	0.0148867	12.5269	0	1
224	0.0104212	0.0104212	0.0147378	12.5417	0	1
225	0.010317	0.010317	0.0145905	12.5563	0	1
226	0.0102138	0.0102138	0.0144446	12.5707	0	1
227	0.0101117	0.0101117	0.0143001	12.585	0	1
228	0.0100106	0.0100106	0.0141571	12.5992	0	1
229	0.00991048	0.00991048	0.0140155	12.6132	0	1
230	0.00981138	0.00981138	0.0138754	12.6271	0	1
231	0.00971326	0.00971326	0.0137366	12.6408	0	1
232	0.00961613	0.00961613	0.0135993	12.6544	0	1
233	0.00951997	0.00951997	0.0134633	12.6679	0	1
234	0.00942477	0.00942477	0.0133286	12.6812	0	1
235	0.00933052	0.00933052	0.0131954	12.6944	0	1
236	0.00923722	0.00923722	0.0130634	12.7074	0	1
237	0.00914484	0.00914484	0.0129328	12.7204	0	1
238	0.0090534	0.0090534	0.0128034	12.7332	0	1
239	0.00896286	0.00896286	0.0126754	12.7458	0	1
240	0.00887323	0.00887323	0.0125486	12.7584	0	1
241	0.0087845	0.0087845	0.0124232	12.7708	0	1
242	0.00869666	0.00869666	0.0122989	12.7831	0	1
243	0.00860969	0.00860969	0.0121759	12.7953	0	1
244	0.00852359	0.00852359	0.0120542	12.8074	0	1
245	0.00843836	0.00843836	0.0119336	12.8193	0	1
246	0.00835397	0.00835397	0.0118143	12.8311	0	1
247	0.00827043	0.00827043	0.0116962	12.8428	0	1
248	0.00818773	0.00818773	0.0115792	12.8544	0	1
249	0.00810585	0.00810585	0.0114634	12.8658	0	1
250	0.00802479	0.00802479	0.0113488	12.8772	0	1
251	0.00794455	0.00794455	0.0112353	12.8884	0	1
252	0.0078651	0.0078651	0.0111229	12.8995	0	1
253	0.00778645	0.00778645	0.0110117	12.9106	0	1
254	0.00770858	0.00770858	0.0109016	12.9215	0	1
255	0.0076315	0.0076315	0.0107926	12.9322	0	1
256	0.00755518	0.00755518	0.0106846	12.9429	0	1
257	0.00747963	0.00747963	0.0105778	12.9535	0	1
258	0.00740484	0.00740484	0.010472	12.964	0	1
259	0.00733079	0.00733079	0.0103673	12.9744	0	1
260	0.00725748	0.00725748	0.0102636	12.9846	0	1
261	0.0071849	0.0071849	0.010161	12.9948	0	1
262	0.00711306	0.00711306	0.0100594	13.0048	0	1
263	0.00704192	0.00704192	0.00995879	13.0148	0	1
264	0.00697151	0.00697151	0.0098592	13.0247	0	1
265	0.00690179	0.00690179	0.00976061	13.0344	0	1
266	0.00683277	0.00683277	0.009663	13.0441	0	1
267	0.00676444	0.00676444	0.00956637	13.0536	0	1
268	0.0066968	0.0066968	0.00947071	13.0631	0	1
269	0.00662983	0.00662983	0.009376	13.0725	0	1
270	0.00656353	0.00656353	0.00928224	13.0818	0	1
271	0.0064979	0.0064979	0.00918942	13.091	0	1
272	0.00643292	0.00643292	0.00909752	13.1001	0	1
273	0.00636859	0.00636859	0.00900655	13.1091	0	1
274	0.0063049	0.0063049	0.00891648	13.118	0	1
275	0.00624186	0.00624186	0.00882732	13.1268	0	1
276	0.00617944	0.00617944	0.00873904	13.1355	0	1
277	0.00611764	0.00611764	0.00865165	13.1442	0	1
278	0.00605647	0.00605647	0.00856514	13.1528	0	1
279	0.0059959	0.0059959	0.00847949	13.1612	0	1
280	0.00593594	0.00593594	0.00839469	13.1696	0	1
281	0.00587658	0.00587658	0.00831074	13.178	0	1
282	0.00581782	0.00581782	0.00822764	13.1862	0	1
283	0.00575964	0.00575964	0.00814536	13.1943	0	1
284	0.00570204	0.00570204	0.00806391	13.2024	0	1
285	0.00564502	0.00564502	0.00798327	13.2104	0	1
286	0.00558857	0.00558857	0.00790343	13.2183	0	1
287	0.00553269	0.00553269	0.0078244	13.2261	0	1
288	0.00547736	0.00547736	0.00774616	13.2338	0	1
289	0.00542259	0.00542259	0.00766869	13.2415	0	1
290	0.00536836	0.00536836	0.00759201	13.2491	0	1
291	0.00531468	0.00531468	0.00751609	13.2566	0	1
292	0.00526153	0.00526153	0.00744093	13.2641	0	1
293	0.00520891	0.00520891	0.00736652	13.2714	0	1
294	0.00515683	0.00515683	0.00729285	13.2787	0	1
295	0.00510526	0.00510526	0.00721992	13.2859	0	1
296	0.0050542	0.0050542	0.00714772	13.2931	0	1
297	0.00500366	0.00500366	0.00707625	13.3002	0	1
298	0.00495363	0.00495363	0.00700548	13.3072	0	1
299	0.00490409	0.00490409	0.00693543	13.3141	0	1
300	0.00485505	0.00485505	0.00686608	13.321	0	1
301	0.0048065	0.0048065	0.00679741	13.3278	0	1
302	0.00475843	0.00475843	0.00672944	13.3345	0	1
303	0.00471085	0.00471085	0.00666215	13.3412	0	1
304	0.00466374	0.00466374	0.00659552	13.3478	0	1
305	0.0046171	0.0046171	0.00652957	13.3543	0	1
306	0.00457093	0.00457093	0.00646427	13.3608	0	1
307	0.00452522	0.00452522	0.00639963	13.3672	0	1
308	0.00447997	0.00447997	0.00633563	13.3735	0	1
309	0.00443517	0.00443517	0.00627228	13.3798	0	1
310	0.00439082	0.00439082	0.00620956	13.386	0	1
311	0.00434691	0.00434691	0.00614746	13.3921	0	1
312	0.00430344	0.00430344	0.00608599	13.3982	0	1
313	0.00426041	0.00426041	0.00602513	13.4042	0	1
314	0.0042178	0.0042178	0.00596487	13.4102	0	1
315	0.00417563	0.00417563	0.00590523	13.4161	0	1
316	0.00413387	0.00413387	0.00584617	13.4219	0	1
317	0.00409253	0.00409253	0.00578771	13.4277	0	1
318	0.0040516	0.0040516	0.00572983	13.4335	0	1
319	0.00401109	0.00401109	0.00567254	13.4391	0	1
320	0.00397098	0.00397098	0.00561581	13.4447	0	1
321	0.00393127	0.00393127	0.00555965	13.4503	0	1
322	0.00389196	0.00389196	0.00550406	13.4558	0	1
323	0.00385304	0.00385304	0.00544902	13.4613	0	1
324	0.00381451	0.00381451	0.00539453	13.4667	0	1
325	0.00377636	0.00377636	0.00534058	13.472	0	1
326	0.0037386	0.0037386	0.00528717	13.4773	0	1
327	0.00370121	0.00370121	0.0052343	13.4825	0	1
328	0.0036642	0.0036642	0.00518196	13.4877	0	1
329	0.00362756	0.00362756	0.00513014	13.4928	0	1
330	0.00359128	0.00359128	0.00507884	13.4979	0	1
331	0.00355537	0.00355537	0.00502805	13.5029	0	1
332	0.00351981	0.00351981	0.00497777	13.5079	0	1
333	0.00348462	0.00348462	0.00492799	13.5128	0	1
334	0.00344977	0.00344977	0.00487871	13.5177	0	1
335	0.00341527	0.00341527	0.00482992	13.5226	0	1
336	0.00338112	0.00338112	0.00478163	13.5273	0	1
337	0.00334731	0.00334731	0.00473381	13.5321	0	1
338	0.00331384	0.00331384	0.00468647	13.5368	0	1
339	0.0032807	0.0032807	0.00463961	13.5414	0	1
340	0.00324789	0.00324789	0.00459321	13.546	0	1
341	0.00321541	0.00321541	0.00454728	13.5505	0	1
342	0.00318326	0.00318326	0.00450181	13.555	0	1
343	0.00315142	0.00315142	0.00445679	13.5595	0	1
344	0.00311991	0.00311991	0.00441222	13.5639	0	1
345	0.00308871	0.00308871	0.0043681	13.5683	0	1
346	0.00305782	0.00305782	0.00432442	13.5726	0	1
347	0.00302725	0.00302725	0.00428117	13.5769	0	1
348	0.00299697	0.00299697	0.00423836	13.5811	0	1
349	0.002967	0.002967	0.00419598	13.5853	0	1
350	0.00293733	0.00293733	0.00415402	13.5895	0	1
351	0.00290796	0.00290796	0.00411248	13.5936	0	1
352	0.00287888	0.00287888	0.00407135	13.5977	0	1
353	0.00285009	0.00285009	0.00403064	13.6017	0	1
354	0.00282159	0.00282159	0.00399033	13.6057	0	1
355	0.00279338	0.00279338	0.00395043	13.6096	0	1
356	0.00276544	0.00276544	0.00391092	13.6135	0	1
357	0.00273779	0.00273779	0.00387182	13.6174	0	1
358	0.00271041	0.00271041	0.0038331	13.6212	0	1
359	0.00268331	0.00268331	0.00379477	13.625	0	1
360	0.00265647	0.00265647	0.00375682	13.6288	0	1
361	0.00262991	0.00262991	0.00371925	13.6325	0	1
362	0.00260361	0.00260361	0.00368206	13.6362	0	1
363	0.00257757	0.00257757	0.00364524	13.6398	0	1
364	0.0025518	0.0025518	0.00360879	13.6434	0	1
365	0.00252628	0.00252628	0.0035727	13.647	0	1
366	0.00250102	0.00250102	0.00353697	13.6506	0	1
367	0.00247601	0.00247601	0.0035016	13.6541	0	1
368	0.00245125	0.00245125	0.00346658	13.6575	0	1
369	0.00242673	0.00242673	0.00343192	13.661	0	1
370	0.00240247	0.00240247	0.0033976	13.6644	0	1
371	0.00237844	0.00237844	0.00336362	13.6677	0	1
372	0.00235466	0.00235466	0.00332999	13.671	0	1
373	0.00233111	0.00233111	0.00329669	13.6743	0	1
374	0.0023078	0.0023078	0.00326372	13.6776	0	1
375	0.00228472	0.00228472	0.00323108	13.6808	0	1
376	0.00226187	0.00226187	0.00319877	13.684	0	1
377	0.00223926	0.00223926	0.00316678	13.6872	0	1
378	0.00221686	0.00221686	0.00313512	13.6903	0	1
379	0.00219469	0.00219469	0.00310377	13.6934	0	1
380	0.00217275	0.00217275	0.00307273	13.6965	0	1
381	0.00215102	0.00215102	0.003042	13.6996	0	1
382	0.00212951	0.00212951	0.00301158	13.7026	0	1
383	0.00210821	0.00210821	0.00298147	13.7055	0	1
384	0.00208713	0.00208713	0.00295165	13.7085	0	1
385	0.00206626	0.00206626	0.00292213	13.7114	0	1
386	0.0020456	0.0020456	0.00289291	13.7143	0	1
387	0.00202514	0.00202514	0.00286398	13.7172	0	1
388	0.00200489	0.00200489	0.00283534	13.72	0	1
389	0.00198484	0.00198484	0.00280699	13.7228	0	1
390	0.00196499	0.00196499	0.00277892	13.7256	0	1
391	0.00194534	0.00194534	0.00275113	13.7284	0	1
392	0.00192589	0.00192589	0.00272362	13.7311	0	1
393	0.00190663	0.00190663	0.00269638	13.7338	0	1
394	0.00188756	0.00188756	0.00266942	13.7364	0	1
395	0.00186869	0.00186869	0.00264273	13.7391	0	1
396	0.00185	0.00185	0.0026163	13.7417	0	1
397	0.0018315	0.0018315	0.00259014	13.7443	0	1
398	0.00181319	0.00181319	0.00256423	13.7469	0	1
399	0.00179506	0.00179506	0.00253859	13.7494	0	1
400	0.0017771	0.0017771	0.00251321	13.7519	0	1
401	0.00175933	0.00175933	0.00248807	13.7544	0	1
402	0.00174174	0.00174174	0.00246319	13.7569	0	1
403	0.00172432	0.00172432	0.00243856	13.7593	0	1
404	0.00170708	0.00170708	0.00241418	13.7617	0	1
405	0.00169001	0.00169001	0.00239003	13.7641	0	1
406	0.00167311	0.00167311	0.00236613	13.7665	0	1
407	0.00165638	0.00165638	0.00234247	13.7688	0	1
408	0.00163981	0.00163981	0.00231905	13.7711	0	1
409	0.00162342	0.00162342	0.00229586	13.7734	0	1
410	0.00160718	0.00160718	0.0022729	13.7757	0	1
411	0.00159111	0.00159111	0.00225017	13.7779	0	1
412	0.0015752	0.0015752	0.00222767	13.7802	0	1
413	0.00155945	0.00155945	0.00220539	13.7824	0	1
414	0.00154385	0.00154385	0.00218334	13.7846	0	1
415	0.00152841	0.00152841	0.0021615	13.7867	0	1
416	0.00151313	0.00151313	0.00213989	13.7889	0	1
417	0.001498	0.001498	0.00211849	13.791	0	1
418	0.00148302	0.00148302	0.0020973	13.7931	0	1
419	0.00146819	0.00146819	0.00207633	13.7952	0	1
420	0.00145351	0.00145351	0.00205557	13.7972	0	1
421	0.00143897	0.00143897	0.00203501	13.7992	0	1
422	0.00142458	0.00142458	0.00201466	13.8013	0	1
423	0.00141034	0.00141034	0.00199452	13.8033	0	1
424	0.00139623	0.00139623	0.00197457	13.8052	0	1
425	0.00138227	0.00138227	0.00195483	13.8072	0	1
426	0.00136845	0.00136845	0.00193528	13.8091	0	1
427	0.00135476	0.00135476	0.00191592	13.811	0	1
428	0.00134122	0.00134122	0.00189676	13.8129	0	1
