
Current theta : [ -3.12753 , 2.51919 ] 


t	x[0]	x[1]	P	theta[0]	theta[1]	theta[2]
0	0.999	0.138756	1.00859	1.00859	-3.12753	2.51919	0
1	0.997612	0.176492	1.0131	2.02169	-3.12753	2.51919	0
2	0.995848	0.213214	1.01842	3.04011	-3.12753	2.51919	0
3	0.993715	0.248929	1.02442	4.06453	-3.12753	2.51919	0
4	0.991226	0.283643	1.03101	5.09554	-3.12753	2.51919	0
5	0.98839	0.317361	1.03809	6.13363	-3.12753	2.51919	0
6	0.985216	0.350088	1.04557	7.1792	-3.12753	2.51919	0
7	0.981715	0.381831	1.05336	8.23256	-3.12753	2.51919	0
8	0.977897	0.412594	1.06137	9.29393	-3.12753	2.51919	0
9	0.973771	0.442383	1.06955	10.3635	-3.12753	2.51919	0
10	0.969347	0.471202	1.07781	11.4413	-3.12753	2.51919	0
11	0.964635	0.499057	1.08608	12.5274	-3.12753	2.51919	0
12	0.959644	0.525954	1.09432	13.6217	-3.12753	2.51919	0
13	0.954385	0.551898	1.10247	14.7242	-3.12753	2.51919	0
14	0.948866	0.576895	1.11047	15.8346	-3.12753	2.51919	0
15	0.943097	0.600952	1.11829	16.9529	-3.12753	2.51919	0
16	0.937088	0.624075	1.12588	18.0788	-3.12753	2.51919	0
17	0.930847	0.646271	1.1332	19.212	-3.12753	2.51919	0
18	0.924384	0.667548	1.14022	20.3522	-3.12753	2.51919	0
19	0.917709	0.687914	1.14692	21.4991	-3.12753	2.51919	0
20	0.910829	0.707377	1.15325	22.6524	-3.12753	2.51919	0
21	0.903756	0.725947	1.15921	23.8116	-3.12753	2.51919	0
22	0.896496	0.743631	1.16477	24.9764	-3.12753	2.51919	0
23	0.88906	0.760441	1.16991	26.1463	-3.12753	2.51919	0
24	0.881455	0.776387	1.17462	27.3209	-3.12753	2.51919	0
25	0.873692	0.791479	1.17889	28.4998	-3.12753	2.51919	0
26	0.865777	0.805728	1.1827	29.6825	-3.12753	2.51919	0
27	0.85772	0.819148	1.18604	30.8685	-3.12753	2.51919	0
28	0.849528	0.83175	1.18891	32.0574	-3.12753	2.51919	0
29	0.841211	0.843546	1.1913	33.2488	-3.12753	2.51919	0
30	0.832775	0.85455	1.19322	34.442	-3.12753	2.51919	0
31	0.82423	0.864776	1.19465	35.6366	-3.12753	2.51919	0
32	0.815582	0.874238	1.1956	36.8322	-3.12753	2.51919	0
33	0.806839	0.882951	1.19607	38.0283	-3.12753	2.51919	0
34	0.79801	0.890929	1.19607	39.2244	-3.12753	2.51919	0
35	0.789101	0.898187	1.19558	40.4199	-3.12753	2.51919	0
36	0.780119	0.904741	1.19463	41.6146	-3.12753	2.51919	0
37	0.771071	0.910607	1.19321	42.8078	-3.12753	2.51919	0
38	0.761965	0.915801	1.19134	43.9991	-3.12753	2.51919	0
39	0.752807	0.92034	1.18901	45.1881	-3.12753	2.51919	0
40	0.743604	0.924239	1.18624	46.3744	-3.12753	2.51919	0
41	0.734362	0.927517	1.18304	47.5574	-3.12753	2.51919	0
42	0.725086	0.930189	1.17941	48.7368	-3.12753	2.51919	0
43	0.715784	0.932272	1.17536	49.9122	-3.12753	2.51919	0
44	0.706462	0.933784	1.17091	51.0831	-3.12753	2.51919	0
45	0.697124	0.934742	1.16607	52.2492	-3.12753	2.51919	0
46	0.687776	0.935164	1.16085	53.41	-3.12753	2.51919	0
47	0.678425	0.935065	1.15525	54.5653	-3.12753	2.51919	0
48	0.669074	0.934464	1.1493	55.7146	-3.12753	2.51919	0
49	0.65973	0.933378	1.143	56.8576	-3.12753	2.51919	0
50	0.650396	0.931824	1.13636	57.9939	-3.12753	2.51919	0
51	0.641078	0.929818	1.1294	59.1233	-3.12753	2.51919	0
52	0.631779	0.927378	1.12213	60.2455	-3.12753	2.51919	0
53	0.622506	0.92452	1.11456	61.36	-3.12753	2.51919	0
54	0.61326	0.921261	1.10671	62.4667	-3.12753	2.51919	0
55	0.604048	0.917618	1.09859	63.5653	-3.12753	2.51919	0
56	0.594872	0.913605	1.0902	64.6555	-3.12753	2.51919	0
57	0.585736	0.90924	1.08157	65.7371	-3.12753	2.51919	0
58	0.576643	0.904538	1.07271	66.8098	-3.12753	2.51919	0
59	0.567598	0.899515	1.06362	67.8734	-3.12753	2.51919	0
60	0.558603	0.894185	1.05433	68.9278	-3.12753	2.51919	0
61	0.549661	0.888563	1.04483	69.9726	-3.12753	2.51919	0
62	0.540775	0.882665	1.03515	71.0077	-3.12753	2.51919	0
63	0.531948	0.876504	1.02529	72.033	-3.12753	2.51919	0
64	0.523183	0.870095	1.01528	73.0483	-3.12753	2.51919	0
65	0.514482	0.863451	1.00511	74.0534	-3.12753	2.51919	0
66	0.505848	0.856585	0.994796	75.0482	-3.12753	2.51919	0
67	0.497282	0.849511	0.984357	76.0326	-3.12753	2.51919	0
68	0.488787	0.842241	0.973798	77.0064	-3.12753	2.51919	0
69	0.480365	0.834788	0.963131	77.9695	-3.12753	2.51919	0
70	0.472017	0.827164	0.952365	78.9219	-3.12753	2.51919	0
71	0.463745	0.81938	0.941511	79.8634	-3.12753	2.51919	0
72	0.455551	0.811448	0.930577	80.7939	-3.12753	2.51919	0
73	0.447437	0.803378	0.919574	81.7135	-3.12753	2.51919	0
74	0.439403	0.795182	0.90851	82.622	-3.12753	2.51919	0
75	0.431451	0.78687	0.897393	83.5194	-3.12753	2.51919	0
76	0.423582	0.778452	0.886233	84.4057	-3.12753	2.51919	0
77	0.415798	0.769937	0.875037	85.2807	-3.12753	2.51919	0
78	0.408099	0.761334	0.863814	86.1445	-3.12753	2.51919	0
79	0.400485	0.752654	0.85257	86.9971	-3.12753	2.51919	0
80	0.392959	0.743904	0.841314	87.8384	-3.12753	2.51919	0
81	0.38552	0.735093	0.830052	88.6684	-3.12753	2.51919	0
82	0.378169	0.726228	0.818791	89.4872	-3.12753	2.51919	0
83	0.370906	0.717318	0.807538	90.2948	-3.12753	2.51919	0
84	0.363733	0.708371	0.796298	91.0911	-3.12753	2.51919	0
85	0.35665	0.699392	0.785078	91.8761	-3.12753	2.51919	0
86	0.349656	0.69039	0.773884	92.65	-3.12753	2.51919	0
87	0.342752	0.68137	0.762721	93.4128	-3.12753	2.51919	0
88	0.335938	0.672339	0.751594	94.1643	-3.12753	2.51919	0
89	0.329215	0.663302	0.740508	94.9049	-3.12753	2.51919	0
90	0.322582	0.654267	0.729468	95.6343	-3.12753	2.51919	0
91	0.316039	0.645237	0.718479	96.3528	-3.12753	2.51919	0
92	0.309587	0.636219	0.707544	97.0603	-3.12753	2.51919	0
93	0.303224	0.627218	0.696668	97.757	-3.12753	2.51919	0
94	0.296952	0.618237	0.685855	98.4429	-3.12753	2.51919	0
95	0.29077	0.609282	0.675109	99.118	-3.12753	2.51919	0
96	0.284677	0.600357	0.664432	99.7824	-3.12753	2.51919	0
97	0.278674	0.591466	0.653828	100.436	-3.12753	2.51919	0
98	0.272759	0.582613	0.6433	101.08	-3.12753	2.51919	0
99	0.266933	0.573801	0.632851	101.712	-3.12753	2.51919	0
100	0.261195	0.565034	0.622484	102.335	-3.12753	2.51919	0
101	0.255544	0.556316	0.612201	102.947	-3.12753	2.51919	0
102	0.249981	0.547649	0.602005	103.549	-3.12753	2.51919	0
103	0.244505	0.539037	0.591898	104.141	-3.12753	2.51919	0
104	0.239114	0.530481	0.581881	104.723	-3.12753	2.51919	0
105	0.23381	0.521985	0.571958	105.295	-3.12753	2.51919	0
106	0.22859	0.513552	0.562128	105.857	-3.12753	2.51919	0
107	0.223454	0.505182	0.552395	106.409	-3.12753	2.51919	0
108	0.218402	0.496879	0.54276	106.952	-3.12753	2.51919	0
109	0.213434	0.488645	0.533224	107.485	-3.12753	2.51919	0
110	0.208547	0.48048	0.523787	108.009	-3.12753	2.51919	0
111	0.203742	0.472388	0.514453	108.524	-3.12753	2.51919	0
112	0.199018	0.46437	0.50522	109.029	-3.12753	2.51919	0
113	0.194375	0.456426	0.496091	109.525	-3.12753	2.51919	0
114	0.18981	0.448559	0.487066	110.012	-3.12753	2.51919	0
115	0.185325	0.440769	0.478145	110.49	-3.12753	2.51919	0
116	0.180917	0.433058	0.46933	110.959	-3.12753	2.51919	0
117	0.176587	0.425427	0.460621	111.42	-3.12753	2.51919	0
118	0.172332	0.417877	0.452017	111.872	-3.12753	2.51919	0
119	0.168154	0.410408	0.443521	112.316	-3.12753	2.51919	0
120	0.164049	0.403022	0.435131	112.751	-3.12753	2.51919	0
121	0.160019	0.395718	0.426848	113.178	-3.12753	2.51919	0
122	0.156062	0.388499	0.418672	113.596	-3.12753	2.51919	0
123	0.152177	0.381363	0.410604	114.007	-3.12753	2.51919	0
124	0.148363	0.374311	0.402642	114.409	-3.12753	2.51919	0
125	0.14462	0.367345	0.394787	114.804	-3.12753	2.51919	0
126	0.140947	0.360463	0.38704	115.191	-3.12753	2.51919	0
127	0.137342	0.353667	0.379398	115.571	-3.12753	2.51919	0
128	0.133806	0.346956	0.371864	115.943	-3.12753	2.51919	0
129	0.130336	0.340331	0.364435	116.307	-3.12753	2.51919	0
130	0.126933	0.333792	0.357112	116.664	-3.12753	2.51919	0
131	0.123595	0.327338	0.349894	117.014	-3.12753	2.51919	0
132	0.120321	0.32097	0.342781	117.357	-3.12753	2.51919	0
133	0.117112	0.314687	0.335772	117.693	-3.12753	2.51919	0
134	0.113965	0.308489	0.328867	118.021	-3.12753	2.51919	0
135	0.11088	0.302377	0.322066	118.343	-3.12753	2.51919	0
136	0.107856	0.29635	0.315367	118.659	-3.12753	2.51919	0
137	0.104893	0.290407	0.308769	118.968	-3.12753	2.51919	0
138	0.101989	0.284548	0.302274	119.27	-3.12753	2.51919	0
139	0.0991432	0.278774	0.295879	119.566	-3.12753	2.51919	0
140	0.0963554	0.273083	0.289583	119.855	-3.12753	2.51919	0
141	0.0936246	0.267475	0.283387	120.139	-3.12753	2.51919	0
142	0.0909499	0.26195	0.27729	120.416	-3.12753	2.51919	0
143	0.0883304	0.256507	0.271289	120.687	-3.12753	2.51919	0
144	0.0857653	0.251146	0.265386	120.953	-3.12753	2.51919	0
145	0.0832538	0.245866	0.259579	121.212	-3.12753	2.51919	0
146	0.0807952	0.240667	0.253867	121.466	-3.12753	2.51919	0
147	0.0783885	0.235548	0.248249	121.714	-3.12753	2.51919	0
148	0.076033	0.230508	0.242724	121.957	-3.12753	2.51919	0
149	0.0737279	0.225548	0.237292	122.194	-3.12753	2.51919	0
150	0.0714725	0.220666	0.231952	122.426	-3.12753	2.51919	0
151	0.0692658	0.215862	0.226702	122.653	-3.12753	2.51919	0
152	0.0671072	0.211134	0.221542	122.875	-3.12753	2.51919	0
153	0.0649958	0.206483	0.216471	123.091	-3.12753	2.51919	0
154	0.062931	0.201908	0.211488	123.303	-3.12753	2.51919	0
155	0.0609119	0.197408	0.206592	123.509	-3.12753	2.51919	0
156	0.0589379	0.192983	0.201782	123.711	-3.12753	2.51919	0
157	0.057008	0.18863	0.197057	123.908	-3.12753	2.51919	0
158	0.0551217	0.184351	0.192416	124.1	-3.12753	2.51919	0
159	0.0532782	0.180144	0.187858	124.288	-3.12753	2.51919	0
160	0.0514768	0.176009	0.183382	124.472	-3.12753	2.51919	0
161	0.0497167	0.171944	0.178988	124.651	-3.12753	2.51919	0
162	0.0479972	0.16795	0.174673	124.825	-3.12753	2.51919	0
163	0.0463177	0.164024	0.170438	124.996	-3.12753	2.51919	0
164	0.0446775	0.160167	0.166282	125.162	-3.12753	2.51919	0
165	0.0430758	0.156378	0.162202	125.324	-3.12753	2.51919	0
166	0.041512	0.152655	0.158199	125.482	-3.12753	2.51919	0
167	0.0399855	0.148999	0.154271	125.637	-3.12753	2.51919	0
168	0.0384955	0.145408	0.150418	125.787	-3.12753	2.51919	0
169	0.0370414	0.141882	0.146638	125.934	-3.12753	2.51919	0
170	0.0356226	0.13842	0.14293	126.077	-3.12753	2.51919	0
171	0.0342384	0.135021	0.139294	126.216	-3.12753	2.51919	0
172	0.0328882	0.131684	0.135729	126.352	-3.12753	2.51919	0
173	0.0315713	0.128409	0.132233	126.484	-3.12753	2.51919	0
174	0.0302873	0.125194	0.128806	126.613	-3.12753	2.51919	0
175	0.0290353	0.12204	0.125446	126.738	-3.12753	2.51919	0
176	0.0278149	0.118944	0.122153	126.86	-3.12753	2.51919	0
177	0.0266255	0.115907	0.118926	126.979	-3.12753	2.51919	0
178	0.0254664	0.112928	0.115764	127.095	-3.12753	2.51919	0
179	0.0243371	0.110006	0.112666	127.208	-3.12753	2.51919	0
180	0.0232371	0.10714	0.109631	127.317	-3.12753	2.51919	0
181	0.0221657	0.104329	0.106658	127.424	-3.12753	2.51919	0
182	0.0211224	0.101573	0.103746	127.528	-3.12753	2.51919	0
183	0.0201067	0.0988705	0.100894	127.629	-3.12753	2.51919	0
184	0.019118	0.0962214	0.0981022	127.727	-3.12753	2.51919	0
185	0.0181557	0.0936246	0.0953687	127.822	-3.12753	2.51919	0
186	0.0172195	0.0910795	0.0926929	127.915	-3.12753	2.51919	0
187	0.0163087	0.0885852	0.0900739	128.005	-3.12753	2.51919	0
188	0.0154228	0.0861411	0.0875109	128.092	-3.12753	2.51919	0
189	0.0145614	0.0837464	0.0850029	128.177	-3.12753	2.51919	0
190	0.013724	0.0814004	0.0825492	128.26	-3.12753	2.51919	0
191	0.01291	0.0791024	0.080149	128.34	-3.12753	2.51919	0
192	0.0121189	0.0768516	0.0778013	128.418	-3.12753	2.51919	0
193	0.0113504	0.0746474	0.0755054	128.493	-3.12753	2.51919	0
194	0.010604	0.072489	0.0732605	128.567	-3.12753	2.51919	0
195	0.00987906	0.0703757	0.0710657	128.638	-3.12753	2.51919	0
196	0.00917531	0.0683069	0.0689204	128.707	-3.12753	2.51919	0
197	0.00849224	0.0662818	0.0668236	128.773	-3.12753	2.51919	0
198	0.00782942	0.0642998	0.0647747	128.838	-3.12753	2.51919	0
199	0.00718642	0.0623602	0.0627729	128.901	-3.12753	2.51919	0
200	0.00656282	0.0604623	0.0608174	128.962	-3.12753	2.51919	0
201	0.0059582	0.0586054	0.0589075	129.021	-3.12753	2.51919	0
202	0.00537214	0.0567889	0.0570424	129.078	-3.12753	2.51919	0
203	0.00480425	0.0550121	0.0552215	129.133	-3.12753	2.51919	0
204	0.00425413	0.0532745	0.053444	129.186	-3.12753	2.51919	0
205	0.00372139	0.0515752	0.0517093	129.238	-3.12753	2.51919	0
206	0.00320564	0.0499138	0.0500166	129.288	-3.12753	2.51919	0
207	0.0027065	0.0482896	0.0483653	129.337	-3.12753	2.51919	0
208	0.0022236	0.0467019	0.0467548	129.383	-3.12753	2.51919	0
209	0.00175658	0.0451501	0.0451843	129.428	-3.12753	2.51919	0
210	0.00130508	0.0436337	0.0436532	129.472	-3.12753	2.51919	0
211	0.000868745	0.042152	0.042161	129.514	-3.12753	2.51919	0
212	0.000447225	0.0407045	0.0407069	129.555	-3.12753	2.51919	0
213	4.01802e-05	0.0392905	0.0392905	129.594	-3.12753	2.51919	0
214	-0.000352724	0.0379094	0.037911	129.632	-3.12753	2.51919	0
215	-0.000731818	0.0365607	0.0365681	129.669	-3.12753	2.51919	0
216	-0.00109743	0.0352439	0.035261	129.704	-3.12753	2.51919	0
217	-0.00144986	0.0339583	0.0339892	129.738	-3.12753	2.51919	0
218	-0.00178945	0.0327034	0.0327523	129.771	-3.12753	2.51919	0
219	-0.00211648	0.0314786	0.0315497	129.802	-3.12753	2.51919	0
220	-0.00243127	0.0302835	0.0303809	129.833	-3.12753	2.51919	0
221	-0.0027341	0.0291174	0.0292455	129.862	-3.12753	2.51919	0
222	-0.00302528	0.0279799	0.0281429	129.89	-3.12753	2.51919	0
223	-0.00330508	0.0268703	0.0270728	129.917	-3.12753	2.51919	0
224	-0.00357378	0.0257883	0.0260347	129.943	-3.12753	2.51919	0
225	-0.00383166	0.0247332	0.0250283	129.968	-3.12753	2.51919	0
226	-0.00407899	0.0237047	0.0240531	129.992	-3.12753	2.51919	0
227	-0.00431604	0.0227021	0.0231087	130.015	-3.12753	2.51919	0
228	-0.00454306	0.021725	0.022195	130.038	-3.12753	2.51919	0
229	-0.00476031	0.020773	0.0213114	130.059	-3.12753	2.51919	0
230	-0.00496804	0.0198455	0.0204579	130.079	-3.12753	2.51919	0
231	-0.0051665	0.018942	0.019634	130.099	-3.12753	2.51919	0
232	-0.00535592	0.0180622	0.0188395	130.118	-3.12753	2.51919	0
233	-0.00553654	0.0172055	0.0180743	130.136	-3.12753	2.51919	0
234	-0.00570859	0.0163714	0.0173382	130.153	-3.12753	2.51919	0
235	-0.00587231	0.0155597	0.0166309	130.17	-3.12753	2.51919	0
236	-0.00602791	0.0147697	0.0159525	130.186	-3.12753	2.51919	0
237	-0.0061756	0.0140012	0.0153026	130.201	-3.12753	2.51919	0
238	-0.00631561	0.0132535	0.0146814	130.216	-3.12753	2.51919	0
239	-0.00644815	0.0125264	0.0140887	130.23	-3.12753	2.51919	0
240	-0.00657341	0.0118195	0.0135244	130.243	-3.12753	2.51919	0
241	-0.00669161	0.0111322	0.0129886	130.256	-3.12753	2.51919	0
242	-0.00680293	0.0104643	0.0124812	130.269	-3.12753	2.51919	0
243	-0.00690757	0.00981521	0.0120022	130.281	-3.12753	2.51919	0
244	-0.00700573	0.00918468	0.0115516	130.292	-3.12753	2.51919	0
245	-0.00709757	0.0085723	0.0111292	130.304	-3.12753	2.51919	0
246	-0.0071833	0.00797767	0.0107351	130.314	-3.12753	2.51919	0
247	-0.00726307	0.00740044	0.0103691	130.325	-3.12753	2.51919	0
248	-0.00733708	0.00684022	0.010031	130.335	-3.12753	2.51919	0
249	-0.00740548	0.00629666	0.00972055	130.344	-3.12753	2.51919	0
250	-0.00746845	0.00576941	0.00943736	130.354	-3.12753	2.51919	0
251	-0.00752614	0.00525811	0.00918099	130.363	-3.12753	2.51919	0
252	-0.00757872	0.00476243	0.00895085	130.372	-3.12753	2.51919	0
253	-0.00762634	0.00428202	0.00874625	130.381	-3.12753	2.51919	0
254	-0.00766917	0.00381655	0.00856634	130.389	-3.12753	2.51919	0
255	-0.00770733	0.0033657	0.00841016	130.398	-3.12753	2.51919	0
256	-0.00774099	0.00292913	0.00827664	130.406	-3.12753	2.51919	0
257	-0.00777028	0.00250654	0.00816456	130.414	-3.12753	2.51919	0
258	-0.00779534	0.00209761	0.00807263	130.422	-3.12753	2.51919	0
259	-0.00781632	0.00170204	0.00799949	130.43	-3.12753	2.51919	0
260	-0.00783334	0.00131952	0.0079437	130.438	-3.12753	2.51919	0
261	-0.00784654	0.00094976	0.00790381	130.446	-3.12753	2.51919	0
262	-0.00785603	0.000592469	0.00787834	130.454	-3.12753	2.51919	0
263	-0.00786196	0.000247359	0.00786585	130.462	-3.12753	2.51919	0
264	-0.00786443	-8.58499e-05	0.0078649	130.47	-3.12753	2.51919	0
265	-0.00786357	-0.000407435	0.00787412	130.478	-3.12753	2.51919	0
266	-0.0078595	-0.000717668	0.0078922	130.485	-3.12753	2.51919	0
267	-0.00785232	-0.00101682	0.00791788	130.493	-3.12753	2.51919	0
268	-0.00784215	-0.00130514	0.00795002	130.501	-3.12753	2.51919	0
269	-0.0078291	-0.0015829	0.00798752	130.509	-3.12753	2.51919	0
270	-0.00781327	-0.00185034	0.00802938	130.517	-3.12753	2.51919	0
271	-0.00779477	-0.00210772	0.00807471	130.525	-3.12753	2.51919	0
272	-0.00777369	-0.00235528	0.00812266	130.534	-3.12753	2.51919	0
273	-0.00775014	-0.00259325	0.00817249	130.542	-3.12753	2.51919	0
274	-0.00772421	-0.00282188	0.00822353	130.55	-3.12753	2.51919	0
275	-0.00769599	-0.0030414	0.00827516	130.558	-3.12753	2.51919	0
276	-0.00766557	-0.00325202	0.00832686	130.567	-3.12753	2.51919	0
277	-0.00763305	-0.00345397	0.00837815	130.575	-3.12753	2.51919	0
278	-0.00759852	-0.00364748	0.00842861	130.583	-3.12753	2.51919	0
279	-0.00756204	-0.00383275	0.00847788	130.592	-3.12753	2.51919	0
280	-0.00752371	-0.00401	0.00852563	130.6	-3.12753	2.51919	0
281	-0.00748361	-0.00417942	0.00857158	130.609	-3.12753	2.51919	0
282	-0.00744182	-0.00434123	0.00861551	130.618	-3.12753	2.51919	0
283	-0.00739841	-0.00449562	0.00865719	130.626	-3.12753	2.51919	0
284	-0.00735345	-0.00464279	0.00869648	130.635	-3.12753	2.51919	0
285	-0.00730702	-0.00478291	0.0087332	130.644	-3.12753	2.51919	0
286	-0.00725919	-0.0049162	0.00876726	130.652	-3.12753	2.51919	0
287	-0.00721003	-0.00504281	0.00879855	130.661	-3.12753	2.51919	0
288	-0.0071596	-0.00516295	0.008827	130.67	-3.12753	2.51919	0
289	-0.00710797	-0.00527677	0.00885255	130.679	-3.12753	2.51919	0
290	-0.00705521	-0.00538446	0.00887515	130.688	-3.12753	2.51919	0
291	-0.00700136	-0.00548617	0.00889478	130.697	-3.12753	2.51919	0
292	-0.0069465	-0.00558209	0.00891143	130.706	-3.12753	2.51919	0
293	-0.00689068	-0.00567237	0.00892509	130.714	-3.12753	2.51919	0
294	-0.00683395	-0.00575716	0.00893576	130.723	-3.12753	2.51919	0
295	-0.00677638	-0.00583663	0.00894347	130.732	-3.12753	2.51919	0
296	-0.00671802	-0.00591093	0.00894823	130.741	-3.12753	2.51919	0
297	-0.00665891	-0.0059802	0.00895008	130.75	-3.12753	2.51919	0
298	-0.00659911	-0.0060446	0.00894904	130.759	-3.12753	2.51919	0
299	-0.00653866	-0.00610426	0.00894517	130.768	-3.12753	2.51919	0
300	-0.00647762	-0.00615933	0.0089385	130.777	-3.12753	2.51919	0
301	-0.00641602	-0.00620994	0.00892909	130.786	-3.12753	2.51919	0
302	-0.00635392	-0.00625622	0.00891699	130.795	-3.12753	2.51919	0
303	-0.00629136	-0.00629832	0.00890225	130.804	-3.12753	2.51919	0
304	-0.00622838	-0.00633635	0.00888493	130.813	-3.12753	2.51919	0
305	-0.00616502	-0.00637044	0.0088651	130.822	-3.12753	2.51919	0
306	-0.00610131	-0.00640072	0.0088428	130.83	-3.12753	2.51919	0
307	-0.0060373	-0.0064273	0.00881812	130.839	-3.12753	2.51919	0
308	-0.00597303	-0.0064503	0.0087911	130.848	-3.12753	2.51919	0
309	-0.00590853	-0.00646985	0.00876183	130.857	-3.12753	2.51919	0
310	-0.00584383	-0.00648604	0.00873035	130.866	-3.12753	2.51919	0
311	-0.00577897	-0.00649899	0.00869674	130.874	-3.12753	2.51919	0
312	-0.00571398	-0.00650881	0.00866107	130.883	-3.12753	2.51919	0
313	-0.00564889	-0.0065156	0.0086234	130.892	-3.12753	2.51919	0
314	-0.00558373	-0.00651946	0.00858379	130.9	-3.12753	2.51919	0
315	-0.00551854	-0.0065205	0.00854232	130.909	-3.12753	2.51919	0
316	-0.00545334	-0.00651882	0.00849905	130.917	-3.12753	2.51919	0
317	-0.00538815	-0.0065145	0.00845404	130.926	-3.12753	2.51919	0
318	-0.005323	-0.00650764	0.00840736	130.934	-3.12753	2.51919	0
319	-0.00525793	-0.00649833	0.00835907	130.942	-3.12753	2.51919	0
320	-0.00519294	-0.00648667	0.00830924	130.951	-3.12753	2.51919	0
321	-0.00512808	-0.00647273	0.00825793	130.959	-3.12753	2.51919	0
322	-0.00506335	-0.00645661	0.0082052	130.967	-3.12753	2.51919	0
323	-0.00499878	-0.00643838	0.00815111	130.975	-3.12753	2.51919	0
324	-0.0049344	-0.00641813	0.00809572	130.983	-3.12753	2.51919	0
325	-0.00487022	-0.00639593	0.00803909	130.991	-3.12753	2.51919	0
326	-0.00480626	-0.00637187	0.00798128	130.999	-3.12753	2.51919	0
327	-0.00474254	-0.00634601	0.00792234	131.007	-3.12753	2.51919	0
328	-0.00467908	-0.00631843	0.00786234	131.015	-3.12753	2.51919	0
329	-0.00461589	-0.00628921	0.00780132	131.023	-3.12753	2.51919	0
330	-0.004553	-0.0062584	0.00773934	131.031	-3.12753	2.51919	0
331	-0.00449042	-0.00622608	0.00767646	131.038	-3.12753	2.51919	0
